ª›ÃﬂŸ:	'Chlorosome@GUV
Ãß≤Ÿñº:	Ni_3C6F5_thiophene_OH_max.UDS
ï™êÕì˙éû:	18:02:11, 10/15/2021
µÕﬂ⁄∞¿:	Administrator
∫“›ƒ:	'from tepidum in GUV:Lecithin/DOPG/Chol=85/15/5 solvent:OS

√ﬁ∞¿ÿΩƒ
nm	Abs
800.00	0.005
799.50	0.005
799.00	0.005
798.50	0.005
798.00	0.005
797.50	0.005
797.00	0.005
796.50	0.005
796.00	0.005
795.50	0.005
795.00	0.005
794.50	0.005
794.00	0.005
793.50	0.005
793.00	0.005
792.50	0.006
792.00	0.006
791.50	0.006
791.00	0.006
790.50	0.006
790.00	0.006
789.50	0.005
789.00	0.006
788.50	0.006
788.00	0.006
787.50	0.006
787.00	0.006
786.50	0.006
786.00	0.005
785.50	0.005
785.00	0.005
784.50	0.006
784.00	0.006
783.50	0.006
783.00	0.006
782.50	0.006
782.00	0.006
781.50	0.006
781.00	0.006
780.50	0.006
780.00	0.006
779.50	0.006
779.00	0.006
778.50	0.006
778.00	0.006
777.50	0.006
777.00	0.006
776.50	0.006
776.00	0.006
775.50	0.006
775.00	0.006
774.50	0.006
774.00	0.006
773.50	0.006
773.00	0.006
772.50	0.006
772.00	0.006
771.50	0.007
771.00	0.007
770.50	0.007
770.00	0.007
769.50	0.007
769.00	0.007
768.50	0.007
768.00	0.007
767.50	0.007
767.00	0.007
766.50	0.007
766.00	0.007
765.50	0.007
765.00	0.007
764.50	0.007
764.00	0.007
763.50	0.007
763.00	0.007
762.50	0.007
762.00	0.007
761.50	0.008
761.00	0.008
760.50	0.008
760.00	0.008
759.50	0.008
759.00	0.008
758.50	0.009
758.00	0.009
757.50	0.009
757.00	0.009
756.50	0.009
756.00	0.008
755.50	0.008
755.00	0.008
754.50	0.009
754.00	0.009
753.50	0.009
753.00	0.009
752.50	0.009
752.00	0.009
751.50	0.010
751.00	0.010
750.50	0.010
750.00	0.010
749.50	0.010
749.00	0.010
748.50	0.010
748.00	0.010
747.50	0.010
747.00	0.010
746.50	0.010
746.00	0.011
745.50	0.011
745.00	0.011
744.50	0.011
744.00	0.012
743.50	0.012
743.00	0.012
742.50	0.012
742.00	0.012
741.50	0.012
741.00	0.013
740.50	0.013
740.00	0.013
739.50	0.013
739.00	0.013
738.50	0.014
738.00	0.014
737.50	0.014
737.00	0.015
736.50	0.015
736.00	0.015
735.50	0.016
735.00	0.016
734.50	0.016
734.00	0.016
733.50	0.017
733.00	0.017
732.50	0.018
732.00	0.018
731.50	0.019
731.00	0.019
730.50	0.020
730.00	0.020
729.50	0.020
729.00	0.021
728.50	0.021
728.00	0.022
727.50	0.022
727.00	0.023
726.50	0.024
726.00	0.025
725.50	0.025
725.00	0.026
724.50	0.026
724.00	0.027
723.50	0.028
723.00	0.029
722.50	0.030
722.00	0.031
721.50	0.031
721.00	0.032
720.50	0.033
720.00	0.034
719.50	0.035
719.00	0.036
718.50	0.037
718.00	0.038
717.50	0.040
717.00	0.041
716.50	0.042
716.00	0.043
715.50	0.044
715.00	0.045
714.50	0.047
714.00	0.048
713.50	0.050
713.00	0.051
712.50	0.052
712.00	0.054
711.50	0.056
711.00	0.057
710.50	0.059
710.00	0.061
709.50	0.063
709.00	0.065
708.50	0.067
708.00	0.069
707.50	0.071
707.00	0.073
706.50	0.075
706.00	0.077
705.50	0.079
705.00	0.081
704.50	0.084
704.00	0.086
703.50	0.088
703.00	0.091
702.50	0.093
702.00	0.096
701.50	0.098
701.00	0.101
700.50	0.103
700.00	0.106
699.50	0.109
699.00	0.111
698.50	0.114
698.00	0.117
697.50	0.120
697.00	0.123
696.50	0.126
696.00	0.129
695.50	0.132
695.00	0.134
694.50	0.137
694.00	0.140
693.50	0.143
693.00	0.146
692.50	0.149
692.00	0.151
691.50	0.154
691.00	0.157
690.50	0.160
690.00	0.163
689.50	0.165
689.00	0.168
688.50	0.171
688.00	0.173
687.50	0.176
687.00	0.178
686.50	0.180
686.00	0.182
685.50	0.185
685.00	0.187
684.50	0.189
684.00	0.191
683.50	0.192
683.00	0.194
682.50	0.196
682.00	0.197
681.50	0.199
681.00	0.200
680.50	0.201
680.00	0.202
679.50	0.203
679.00	0.204
678.50	0.205
678.00	0.206
677.50	0.206
677.00	0.207
676.50	0.207
676.00	0.207
675.50	0.207
675.00	0.207
674.50	0.206
674.00	0.206
673.50	0.205
673.00	0.204
672.50	0.203
672.00	0.202
671.50	0.201
671.00	0.200
670.50	0.199
670.00	0.198
669.50	0.196
669.00	0.195
668.50	0.193
668.00	0.192
667.50	0.190
667.00	0.188
666.50	0.186
666.00	0.184
665.50	0.182
665.00	0.180
664.50	0.178
664.00	0.175
663.50	0.173
663.00	0.170
662.50	0.168
662.00	0.166
661.50	0.163
661.00	0.161
660.50	0.159
660.00	0.156
659.50	0.154
659.00	0.151
658.50	0.149
658.00	0.146
657.50	0.144
657.00	0.141
656.50	0.139
656.00	0.137
655.50	0.135
655.00	0.132
654.50	0.130
654.00	0.128
653.50	0.126
653.00	0.124
652.50	0.122
652.00	0.119
651.50	0.117
651.00	0.115
650.50	0.113
650.00	0.112
649.50	0.110
649.00	0.108
648.50	0.106
648.00	0.105
647.50	0.103
647.00	0.101
646.50	0.100
646.00	0.099
645.50	0.098
645.00	0.097
644.50	0.095
644.00	0.094
643.50	0.093
643.00	0.092
642.50	0.091
642.00	0.090
641.50	0.089
641.00	0.088
640.50	0.088
640.00	0.087
639.50	0.086
639.00	0.085
638.50	0.084
638.00	0.084
637.50	0.083
637.00	0.082
636.50	0.082
636.00	0.081
635.50	0.081
635.00	0.080
634.50	0.080
634.00	0.079
633.50	0.079
633.00	0.078
632.50	0.078
632.00	0.078
631.50	0.077
631.00	0.077
630.50	0.077
630.00	0.077
629.50	0.077
629.00	0.076
628.50	0.076
628.00	0.076
627.50	0.075
627.00	0.075
626.50	0.074
626.00	0.074
625.50	0.074
625.00	0.074
624.50	0.074
624.00	0.073
623.50	0.073
623.00	0.072
622.50	0.072
622.00	0.071
621.50	0.071
621.00	0.071
620.50	0.071
620.00	0.070
619.50	0.070
619.00	0.069
618.50	0.069
618.00	0.069
617.50	0.068
617.00	0.068
616.50	0.067
616.00	0.067
615.50	0.067
615.00	0.066
614.50	0.066
614.00	0.066
613.50	0.065
613.00	0.064
612.50	0.064
612.00	0.063
611.50	0.063
611.00	0.062
610.50	0.062
610.00	0.061
609.50	0.061
609.00	0.060
608.50	0.059
608.00	0.059
607.50	0.058
607.00	0.058
606.50	0.057
606.00	0.057
605.50	0.056
605.00	0.056
604.50	0.055
604.00	0.054
603.50	0.054
603.00	0.053
602.50	0.053
602.00	0.052
601.50	0.052
601.00	0.051
600.50	0.051
600.00	0.050
599.50	0.050
599.00	0.050
598.50	0.049
598.00	0.049
597.50	0.049
597.00	0.049
596.50	0.049
596.00	0.049
595.50	0.048
595.00	0.048
594.50	0.048
594.00	0.048
593.50	0.048
593.00	0.048
592.50	0.048
592.00	0.048
591.50	0.048
591.00	0.048
590.50	0.048
590.00	0.048
589.50	0.049
589.00	0.049
588.50	0.049
588.00	0.049
587.50	0.049
587.00	0.049
586.50	0.049
586.00	0.049
585.50	0.049
585.00	0.049
584.50	0.049
584.00	0.049
583.50	0.049
583.00	0.049
582.50	0.049
582.00	0.049
581.50	0.049
581.00	0.048
580.50	0.048
580.00	0.048
579.50	0.048
579.00	0.048
578.50	0.047
578.00	0.047
577.50	0.047
577.00	0.046
576.50	0.046
576.00	0.045
575.50	0.045
575.00	0.044
574.50	0.044
574.00	0.043
573.50	0.043
573.00	0.043
572.50	0.042
572.00	0.042
571.50	0.041
571.00	0.040
570.50	0.040
570.00	0.039
569.50	0.039
569.00	0.039
568.50	0.038
568.00	0.038
567.50	0.038
567.00	0.037
566.50	0.037
566.00	0.037
565.50	0.037
565.00	0.037
564.50	0.037
564.00	0.036
563.50	0.036
563.00	0.036
562.50	0.036
562.00	0.036
561.50	0.036
561.00	0.036
560.50	0.036
560.00	0.036
559.50	0.036
559.00	0.036
558.50	0.036
558.00	0.036
557.50	0.036
557.00	0.036
556.50	0.037
556.00	0.037
555.50	0.037
555.00	0.037
554.50	0.038
554.00	0.038
553.50	0.038
553.00	0.038
552.50	0.039
552.00	0.039
551.50	0.040
551.00	0.040
550.50	0.041
550.00	0.041
549.50	0.042
549.00	0.042
548.50	0.043
548.00	0.043
547.50	0.044
547.00	0.045
546.50	0.045
546.00	0.046
545.50	0.046
545.00	0.047
544.50	0.047
544.00	0.048
543.50	0.049
543.00	0.050
542.50	0.050
542.00	0.051
541.50	0.052
541.00	0.052
540.50	0.052
540.00	0.053
539.50	0.053
539.00	0.053
538.50	0.053
538.00	0.054
537.50	0.054
537.00	0.054
536.50	0.054
536.00	0.054
535.50	0.054
535.00	0.054
534.50	0.054
534.00	0.053
533.50	0.053
533.00	0.053
532.50	0.052
532.00	0.052
531.50	0.051
531.00	0.051
530.50	0.050
530.00	0.050
529.50	0.049
529.00	0.048
528.50	0.048
528.00	0.047
527.50	0.046
527.00	0.046
526.50	0.045
526.00	0.044
525.50	0.043
525.00	0.042
524.50	0.042
524.00	0.041
523.50	0.041
523.00	0.040
522.50	0.040
522.00	0.039
521.50	0.039
521.00	0.038
520.50	0.038
520.00	0.038
519.50	0.037
519.00	0.037
518.50	0.037
518.00	0.036
517.50	0.036
517.00	0.036
516.50	0.036
516.00	0.036
515.50	0.036
515.00	0.036
514.50	0.036
514.00	0.036
513.50	0.036
513.00	0.036
512.50	0.036
512.00	0.036
511.50	0.036
511.00	0.036
510.50	0.036
510.00	0.036
509.50	0.036
509.00	0.037
508.50	0.037
508.00	0.037
507.50	0.037
507.00	0.037
506.50	0.038
506.00	0.038
505.50	0.038
505.00	0.039
504.50	0.039
504.00	0.040
503.50	0.040
503.00	0.040
502.50	0.041
502.00	0.041
501.50	0.041
501.00	0.042
500.50	0.042
500.00	0.042
499.50	0.043
499.00	0.043
498.50	0.043
498.00	0.044
497.50	0.044
497.00	0.045
496.50	0.045
496.00	0.045
495.50	0.046
495.00	0.046
494.50	0.046
494.00	0.047
493.50	0.047
493.00	0.047
492.50	0.048
492.00	0.048
491.50	0.048
491.00	0.049
490.50	0.049
490.00	0.050
489.50	0.050
489.00	0.050
488.50	0.051
488.00	0.051
487.50	0.052
487.00	0.053
486.50	0.053
486.00	0.054
485.50	0.054
485.00	0.055
484.50	0.056
484.00	0.056
483.50	0.057
483.00	0.058
482.50	0.059
482.00	0.060
481.50	0.061
481.00	0.062
480.50	0.063
480.00	0.064
479.50	0.065
479.00	0.066
478.50	0.068
478.00	0.069
477.50	0.071
477.00	0.073
476.50	0.074
476.00	0.076
475.50	0.078
475.00	0.080
474.50	0.082
474.00	0.084
473.50	0.087
473.00	0.089
472.50	0.092
472.00	0.095
471.50	0.098
471.00	0.101
470.50	0.104
470.00	0.107
469.50	0.111
469.00	0.115
468.50	0.118
468.00	0.123
467.50	0.127
467.00	0.132
466.50	0.137
466.00	0.143
465.50	0.148
465.00	0.154
464.50	0.160
464.00	0.167
463.50	0.174
463.00	0.182
462.50	0.189
462.00	0.197
461.50	0.206
461.00	0.215
460.50	0.224
460.00	0.234
459.50	0.245
459.00	0.256
458.50	0.267
458.00	0.279
457.50	0.292
457.00	0.304
456.50	0.318
456.00	0.331
455.50	0.345
455.00	0.359
454.50	0.374
454.00	0.389
453.50	0.404
453.00	0.420
452.50	0.435
452.00	0.452
451.50	0.468
451.00	0.484
450.50	0.501
450.00	0.518
449.50	0.534
449.00	0.550
448.50	0.566
448.00	0.582
447.50	0.597
447.00	0.612
446.50	0.626
446.00	0.639
445.50	0.652
445.00	0.665
444.50	0.677
444.00	0.688
443.50	0.698
443.00	0.708
442.50	0.717
442.00	0.725
441.50	0.733
441.00	0.740
440.50	0.747
440.00	0.753
439.50	0.758
439.00	0.763
438.50	0.767
438.00	0.771
437.50	0.775
437.00	0.778
436.50	0.781
436.00	0.784
435.50	0.787
435.00	0.789
434.50	0.791
434.00	0.793
433.50	0.795
433.00	0.797
432.50	0.799
432.00	0.800
431.50	0.801
431.00	0.801
430.50	0.802
430.00	0.802
429.50	0.801
429.00	0.801
428.50	0.799
428.00	0.797
427.50	0.795
427.00	0.792
426.50	0.788
426.00	0.783
425.50	0.778
425.00	0.772
424.50	0.765
424.00	0.757
423.50	0.749
423.00	0.740
422.50	0.730
422.00	0.720
421.50	0.710
421.00	0.699
420.50	0.687
420.00	0.675
419.50	0.663
419.00	0.650
418.50	0.638
418.00	0.625
417.50	0.612
417.00	0.599
416.50	0.586
416.00	0.573
415.50	0.561
415.00	0.549
414.50	0.537
414.00	0.525
413.50	0.514
413.00	0.503
412.50	0.492
412.00	0.481
411.50	0.471
411.00	0.461
410.50	0.451
410.00	0.442
409.50	0.432
409.00	0.423
408.50	0.414
408.00	0.406
407.50	0.398
407.00	0.390
406.50	0.382
406.00	0.375
405.50	0.368
405.00	0.361
404.50	0.355
404.00	0.348
403.50	0.342
403.00	0.335
402.50	0.329
402.00	0.323
401.50	0.317
401.00	0.311
400.50	0.305
400.00	0.300
399.50	0.295
399.00	0.289
398.50	0.284
398.00	0.279
397.50	0.275
397.00	0.270
396.50	0.265
396.00	0.261
395.50	0.257
395.00	0.253
394.50	0.249
394.00	0.245
393.50	0.242
393.00	0.239
392.50	0.236
392.00	0.233
391.50	0.231
391.00	0.228
390.50	0.226
390.00	0.225
389.50	0.223
389.00	0.222
388.50	0.220
388.00	0.219
387.50	0.218
387.00	0.218
386.50	0.217
386.00	0.216
385.50	0.215
385.00	0.215
384.50	0.215
384.00	0.214
383.50	0.214
383.00	0.214
382.50	0.213
382.00	0.213
381.50	0.213
381.00	0.212
380.50	0.212
380.00	0.211
379.50	0.210
379.00	0.209
378.50	0.208
378.00	0.207
377.50	0.206
377.00	0.205
376.50	0.204
376.00	0.202
375.50	0.201
375.00	0.199
374.50	0.197
374.00	0.195
373.50	0.193
373.00	0.191
372.50	0.189
372.00	0.187
371.50	0.185
371.00	0.184
370.50	0.182
370.00	0.180
369.50	0.178
369.00	0.176
368.50	0.174
368.00	0.173
367.50	0.171
367.00	0.169
366.50	0.168
366.00	0.166
365.50	0.165
365.00	0.164
364.50	0.162
364.00	0.161
363.50	0.160
363.00	0.159
362.50	0.158
362.00	0.157
361.50	0.156
361.00	0.155
360.50	0.155
360.00	0.154
359.50	0.153
359.00	0.152
358.50	0.152
358.00	0.151
357.50	0.151
357.00	0.151
356.50	0.151
356.00	0.150
355.50	0.150
355.00	0.150
354.50	0.150
354.00	0.151
353.50	0.151
353.00	0.151
352.50	0.151
352.00	0.152
351.50	0.152
351.00	0.152
350.50	0.153
350.00	0.153
349.50	0.154
349.00	0.155
348.50	0.155
348.00	0.156
347.50	0.157
347.00	0.157
346.50	0.158
346.00	0.159
345.50	0.160
345.00	0.161
344.50	0.161
344.00	0.162
343.50	0.163
343.00	0.164
342.50	0.164
342.00	0.165
341.50	0.165
341.00	0.166
340.50	0.166
340.00	0.166
339.50	0.166
339.00	0.166
338.50	0.166
338.00	0.166
337.50	0.166
337.00	0.166
336.50	0.166
336.00	0.166
335.50	0.165
335.00	0.165
334.50	0.165
334.00	0.165
333.50	0.165
333.00	0.164
332.50	0.164
332.00	0.163
331.50	0.163
331.00	0.162
330.50	0.161
330.00	0.161
329.50	0.160
329.00	0.159
328.50	0.158
328.00	0.158
327.50	0.158
327.00	0.157
326.50	0.157
326.00	0.157
325.50	0.157
325.00	0.156
324.50	0.156
324.00	0.156
323.50	0.156
323.00	0.155
322.50	0.155
322.00	0.156
321.50	0.157
321.00	0.157
320.50	0.157
320.00	0.158
319.50	0.159
319.00	0.158
318.50	0.158
318.00	0.159
317.50	0.160
317.00	0.161
316.50	0.162
316.00	0.162
315.50	0.162
315.00	0.163
314.50	0.164
314.00	0.164
313.50	0.163
313.00	0.164
312.50	0.166
312.00	0.166
311.50	0.167
311.00	0.167
310.50	0.167
310.00	0.168
309.50	0.168
309.00	0.169
308.50	0.169
308.00	0.170
307.50	0.171
307.00	0.171
306.50	0.172
306.00	0.172
305.50	0.173
305.00	0.173
304.50	0.174
304.00	0.175
303.50	0.176
303.00	0.177
302.50	0.178
302.00	0.178
301.50	0.179
301.00	0.180
300.50	0.181
300.00	0.182
299.50	0.183
299.00	0.184
298.50	0.184
298.00	0.185
297.50	0.186
297.00	0.187
296.50	0.187
296.00	0.188
295.50	0.188
295.00	0.189
294.50	0.189
294.00	0.190
293.50	0.190
293.00	0.191
292.50	0.191
292.00	0.192
291.50	0.192
291.00	0.193
290.50	0.193
290.00	0.193
289.50	0.193
289.00	0.193
288.50	0.193
288.00	0.193
287.50	0.193
287.00	0.193
286.50	0.193
286.00	0.193
285.50	0.193
285.00	0.193
284.50	0.193
284.00	0.193
283.50	0.193
283.00	0.192
282.50	0.192
282.00	0.191
281.50	0.191
281.00	0.191
280.50	0.190
280.00	0.190
279.50	0.189
279.00	0.188
278.50	0.188
278.00	0.188
277.50	0.187
277.00	0.187
276.50	0.187
276.00	0.187
275.50	0.186
275.00	0.186
274.50	0.186
274.00	0.186
273.50	0.186
273.00	0.185
272.50	0.185
272.00	0.185
271.50	0.185
271.00	0.184
270.50	0.184
270.00	0.184
269.50	0.184
269.00	0.184
268.50	0.184
268.00	0.184
267.50	0.184
267.00	0.184
266.50	0.184
266.00	0.184
265.50	0.184
265.00	0.184
264.50	0.185
264.00	0.185
263.50	0.185
263.00	0.186
262.50	0.186
262.00	0.187
261.50	0.188
261.00	0.188
260.50	0.189
260.00	0.190
259.50	0.192
259.00	0.193
258.50	0.194
258.00	0.196
257.50	0.197
257.00	0.199
256.50	0.200
256.00	0.202
255.50	0.203
255.00	0.204
254.50	0.206
254.00	0.207
253.50	0.208
253.00	0.210
252.50	0.211
252.00	0.212
251.50	0.214
251.00	0.215
250.50	0.216
250.00	0.216

