ª›ÃﬂŸ:	'Chlorosome@GUV
Ãß≤Ÿñº:	Ni_3C6F5_dithiophene_OH_2.UDS
ï™êÕì˙éû:	14:50:25, 10/15/2021
µÕﬂ⁄∞¿:	Administrator
∫“›ƒ:	'from tepidum in GUV:Lecithin/DOPG/Chol=85/15/5 solvent:OS

√ﬁ∞¿ÿΩƒ
nm	Abs
800.00	0.001
799.50	0.001
799.00	0.001
798.50	0.001
798.00	0.000
797.50	0.000
797.00	0.000
796.50	0.001
796.00	0.001
795.50	0.001
795.00	0.001
794.50	0.001
794.00	0.001
793.50	0.001
793.00	0.001
792.50	0.001
792.00	0.001
791.50	0.001
791.00	0.001
790.50	0.001
790.00	0.001
789.50	0.001
789.00	0.001
788.50	0.001
788.00	0.001
787.50	0.001
787.00	0.001
786.50	0.001
786.00	0.001
785.50	0.001
785.00	0.001
784.50	0.001
784.00	0.001
783.50	0.001
783.00	0.001
782.50	0.001
782.00	0.001
781.50	0.001
781.00	0.000
780.50	0.000
780.00	0.001
779.50	0.001
779.00	0.001
778.50	0.001
778.00	0.001
777.50	0.001
777.00	0.001
776.50	0.001
776.00	0.001
775.50	0.001
775.00	0.001
774.50	0.001
774.00	0.001
773.50	0.001
773.00	0.001
772.50	0.001
772.00	0.001
771.50	0.001
771.00	0.001
770.50	0.001
770.00	0.001
769.50	0.002
769.00	0.002
768.50	0.002
768.00	0.002
767.50	0.002
767.00	0.001
766.50	0.001
766.00	0.001
765.50	0.001
765.00	0.001
764.50	0.001
764.00	0.001
763.50	0.001
763.00	0.001
762.50	0.001
762.00	0.002
761.50	0.002
761.00	0.002
760.50	0.002
760.00	0.002
759.50	0.002
759.00	0.003
758.50	0.003
758.00	0.003
757.50	0.003
757.00	0.003
756.50	0.003
756.00	0.003
755.50	0.003
755.00	0.002
754.50	0.002
754.00	0.002
753.50	0.003
753.00	0.003
752.50	0.003
752.00	0.003
751.50	0.003
751.00	0.003
750.50	0.003
750.00	0.003
749.50	0.003
749.00	0.003
748.50	0.003
748.00	0.003
747.50	0.004
747.00	0.004
746.50	0.004
746.00	0.004
745.50	0.004
745.00	0.004
744.50	0.005
744.00	0.005
743.50	0.005
743.00	0.005
742.50	0.005
742.00	0.005
741.50	0.005
741.00	0.006
740.50	0.006
740.00	0.006
739.50	0.006
739.00	0.006
738.50	0.006
738.00	0.006
737.50	0.007
737.00	0.007
736.50	0.007
736.00	0.008
735.50	0.008
735.00	0.008
734.50	0.008
734.00	0.008
733.50	0.009
733.00	0.009
732.50	0.009
732.00	0.010
731.50	0.010
731.00	0.010
730.50	0.010
730.00	0.011
729.50	0.011
729.00	0.011
728.50	0.011
728.00	0.012
727.50	0.012
727.00	0.013
726.50	0.014
726.00	0.014
725.50	0.015
725.00	0.015
724.50	0.016
724.00	0.017
723.50	0.017
723.00	0.018
722.50	0.018
722.00	0.019
721.50	0.020
721.00	0.021
720.50	0.021
720.00	0.022
719.50	0.023
719.00	0.023
718.50	0.024
718.00	0.025
717.50	0.025
717.00	0.026
716.50	0.027
716.00	0.028
715.50	0.029
715.00	0.030
714.50	0.031
714.00	0.032
713.50	0.033
713.00	0.033
712.50	0.034
712.00	0.035
711.50	0.036
711.00	0.037
710.50	0.038
710.00	0.039
709.50	0.040
709.00	0.042
708.50	0.043
708.00	0.044
707.50	0.045
707.00	0.046
706.50	0.047
706.00	0.048
705.50	0.050
705.00	0.051
704.50	0.052
704.00	0.053
703.50	0.054
703.00	0.055
702.50	0.056
702.00	0.057
701.50	0.058
701.00	0.059
700.50	0.061
700.00	0.062
699.50	0.063
699.00	0.064
698.50	0.065
698.00	0.066
697.50	0.067
697.00	0.068
696.50	0.069
696.00	0.070
695.50	0.071
695.00	0.072
694.50	0.073
694.00	0.074
693.50	0.075
693.00	0.076
692.50	0.076
692.00	0.077
691.50	0.078
691.00	0.078
690.50	0.079
690.00	0.079
689.50	0.080
689.00	0.080
688.50	0.081
688.00	0.081
687.50	0.081
687.00	0.082
686.50	0.082
686.00	0.082
685.50	0.082
685.00	0.082
684.50	0.082
684.00	0.082
683.50	0.082
683.00	0.082
682.50	0.082
682.00	0.082
681.50	0.081
681.00	0.081
680.50	0.081
680.00	0.080
679.50	0.080
679.00	0.079
678.50	0.079
678.00	0.079
677.50	0.078
677.00	0.078
676.50	0.077
676.00	0.076
675.50	0.076
675.00	0.075
674.50	0.074
674.00	0.073
673.50	0.072
673.00	0.071
672.50	0.071
672.00	0.070
671.50	0.069
671.00	0.068
670.50	0.067
670.00	0.066
669.50	0.065
669.00	0.065
668.50	0.064
668.00	0.063
667.50	0.062
667.00	0.061
666.50	0.060
666.00	0.059
665.50	0.058
665.00	0.057
664.50	0.056
664.00	0.055
663.50	0.054
663.00	0.054
662.50	0.053
662.00	0.052
661.50	0.052
661.00	0.051
660.50	0.050
660.00	0.049
659.50	0.048
659.00	0.048
658.50	0.047
658.00	0.046
657.50	0.046
657.00	0.045
656.50	0.045
656.00	0.044
655.50	0.044
655.00	0.043
654.50	0.043
654.00	0.043
653.50	0.042
653.00	0.041
652.50	0.041
652.00	0.040
651.50	0.040
651.00	0.039
650.50	0.039
650.00	0.039
649.50	0.039
649.00	0.038
648.50	0.038
648.00	0.037
647.50	0.037
647.00	0.037
646.50	0.037
646.00	0.037
645.50	0.037
645.00	0.037
644.50	0.037
644.00	0.037
643.50	0.037
643.00	0.037
642.50	0.037
642.00	0.036
641.50	0.036
641.00	0.036
640.50	0.036
640.00	0.036
639.50	0.036
639.00	0.036
638.50	0.036
638.00	0.036
637.50	0.036
637.00	0.036
636.50	0.036
636.00	0.035
635.50	0.035
635.00	0.035
634.50	0.035
634.00	0.035
633.50	0.035
633.00	0.035
632.50	0.035
632.00	0.035
631.50	0.035
631.00	0.035
630.50	0.035
630.00	0.035
629.50	0.035
629.00	0.035
628.50	0.035
628.00	0.035
627.50	0.034
627.00	0.034
626.50	0.034
626.00	0.035
625.50	0.035
625.00	0.035
624.50	0.034
624.00	0.034
623.50	0.034
623.00	0.034
622.50	0.034
622.00	0.034
621.50	0.034
621.00	0.033
620.50	0.033
620.00	0.033
619.50	0.033
619.00	0.033
618.50	0.033
618.00	0.032
617.50	0.032
617.00	0.032
616.50	0.032
616.00	0.032
615.50	0.032
615.00	0.032
614.50	0.032
614.00	0.032
613.50	0.032
613.00	0.032
612.50	0.032
612.00	0.032
611.50	0.032
611.00	0.032
610.50	0.032
610.00	0.032
609.50	0.032
609.00	0.033
608.50	0.033
608.00	0.033
607.50	0.033
607.00	0.034
606.50	0.034
606.00	0.034
605.50	0.035
605.00	0.035
604.50	0.036
604.00	0.036
603.50	0.037
603.00	0.037
602.50	0.038
602.00	0.039
601.50	0.039
601.00	0.040
600.50	0.040
600.00	0.041
599.50	0.041
599.00	0.042
598.50	0.043
598.00	0.044
597.50	0.045
597.00	0.046
596.50	0.047
596.00	0.048
595.50	0.049
595.00	0.050
594.50	0.051
594.00	0.052
593.50	0.053
593.00	0.054
592.50	0.055
592.00	0.056
591.50	0.058
591.00	0.059
590.50	0.060
590.00	0.061
589.50	0.062
589.00	0.063
588.50	0.064
588.00	0.065
587.50	0.066
587.00	0.067
586.50	0.067
586.00	0.068
585.50	0.069
585.00	0.070
584.50	0.071
584.00	0.072
583.50	0.073
583.00	0.074
582.50	0.075
582.00	0.075
581.50	0.076
581.00	0.077
580.50	0.078
580.00	0.078
579.50	0.079
579.00	0.079
578.50	0.080
578.00	0.080
577.50	0.081
577.00	0.081
576.50	0.082
576.00	0.082
575.50	0.082
575.00	0.082
574.50	0.082
574.00	0.083
573.50	0.083
573.00	0.083
572.50	0.083
572.00	0.082
571.50	0.082
571.00	0.081
570.50	0.081
570.00	0.080
569.50	0.080
569.00	0.080
568.50	0.079
568.00	0.078
567.50	0.078
567.00	0.077
566.50	0.076
566.00	0.075
565.50	0.075
565.00	0.074
564.50	0.074
564.00	0.073
563.50	0.072
563.00	0.072
562.50	0.071
562.00	0.071
561.50	0.070
561.00	0.070
560.50	0.070
560.00	0.069
559.50	0.069
559.00	0.069
558.50	0.069
558.00	0.069
557.50	0.069
557.00	0.069
556.50	0.070
556.00	0.070
555.50	0.071
555.00	0.071
554.50	0.072
554.00	0.072
553.50	0.073
553.00	0.074
552.50	0.075
552.00	0.076
551.50	0.077
551.00	0.078
550.50	0.079
550.00	0.081
549.50	0.082
549.00	0.083
548.50	0.084
548.00	0.086
547.50	0.087
547.00	0.089
546.50	0.090
546.00	0.092
545.50	0.093
545.00	0.095
544.50	0.096
544.00	0.098
543.50	0.099
543.00	0.101
542.50	0.102
542.00	0.103
541.50	0.104
541.00	0.105
540.50	0.106
540.00	0.106
539.50	0.107
539.00	0.108
538.50	0.108
538.00	0.109
537.50	0.109
537.00	0.109
536.50	0.109
536.00	0.109
535.50	0.109
535.00	0.109
534.50	0.109
534.00	0.108
533.50	0.107
533.00	0.107
532.50	0.106
532.00	0.105
531.50	0.104
531.00	0.103
530.50	0.102
530.00	0.100
529.50	0.099
529.00	0.097
528.50	0.096
528.00	0.094
527.50	0.093
527.00	0.091
526.50	0.089
526.00	0.087
525.50	0.085
525.00	0.084
524.50	0.082
524.00	0.080
523.50	0.078
523.00	0.076
522.50	0.075
522.00	0.073
521.50	0.071
521.00	0.069
520.50	0.068
520.00	0.067
519.50	0.065
519.00	0.064
518.50	0.063
518.00	0.062
517.50	0.060
517.00	0.059
516.50	0.058
516.00	0.057
515.50	0.056
515.00	0.056
514.50	0.055
514.00	0.054
513.50	0.053
513.00	0.052
512.50	0.052
512.00	0.051
511.50	0.051
511.00	0.050
510.50	0.050
510.00	0.050
509.50	0.050
509.00	0.049
508.50	0.049
508.00	0.049
507.50	0.049
507.00	0.049
506.50	0.049
506.00	0.050
505.50	0.050
505.00	0.050
504.50	0.050
504.00	0.050
503.50	0.051
503.00	0.051
502.50	0.051
502.00	0.051
501.50	0.052
501.00	0.052
500.50	0.052
500.00	0.052
499.50	0.053
499.00	0.053
498.50	0.053
498.00	0.053
497.50	0.054
497.00	0.054
496.50	0.054
496.00	0.054
495.50	0.055
495.00	0.055
494.50	0.055
494.00	0.055
493.50	0.056
493.00	0.056
492.50	0.056
492.00	0.057
491.50	0.057
491.00	0.058
490.50	0.058
490.00	0.059
489.50	0.059
489.00	0.059
488.50	0.060
488.00	0.060
487.50	0.061
487.00	0.062
486.50	0.063
486.00	0.064
485.50	0.064
485.00	0.065
484.50	0.066
484.00	0.067
483.50	0.068
483.00	0.069
482.50	0.070
482.00	0.071
481.50	0.073
481.00	0.074
480.50	0.076
480.00	0.077
479.50	0.079
479.00	0.080
478.50	0.082
478.00	0.084
477.50	0.086
477.00	0.088
476.50	0.090
476.00	0.092
475.50	0.095
475.00	0.097
474.50	0.100
474.00	0.103
473.50	0.106
473.00	0.109
472.50	0.112
472.00	0.115
471.50	0.118
471.00	0.121
470.50	0.125
470.00	0.129
469.50	0.132
469.00	0.136
468.50	0.140
468.00	0.144
467.50	0.148
467.00	0.152
466.50	0.157
466.00	0.161
465.50	0.166
465.00	0.171
464.50	0.176
464.00	0.181
463.50	0.186
463.00	0.191
462.50	0.196
462.00	0.202
461.50	0.207
461.00	0.212
460.50	0.218
460.00	0.223
459.50	0.229
459.00	0.235
458.50	0.241
458.00	0.247
457.50	0.253
457.00	0.259
456.50	0.265
456.00	0.271
455.50	0.278
455.00	0.284
454.50	0.290
454.00	0.297
453.50	0.303
453.00	0.310
452.50	0.316
452.00	0.323
451.50	0.330
451.00	0.338
450.50	0.345
450.00	0.353
449.50	0.361
449.00	0.369
448.50	0.378
448.00	0.387
447.50	0.395
447.00	0.405
446.50	0.414
446.00	0.424
445.50	0.434
445.00	0.444
444.50	0.455
444.00	0.466
443.50	0.478
443.00	0.490
442.50	0.502
442.00	0.515
441.50	0.529
441.00	0.543
440.50	0.558
440.00	0.573
439.50	0.588
439.00	0.603
438.50	0.619
438.00	0.636
437.50	0.653
437.00	0.670
436.50	0.688
436.00	0.707
435.50	0.727
435.00	0.747
434.50	0.768
434.00	0.790
433.50	0.812
433.00	0.835
432.50	0.858
432.00	0.881
431.50	0.904
431.00	0.928
430.50	0.952
430.00	0.977
429.50	1.001
429.00	1.026
428.50	1.052
428.00	1.077
427.50	1.103
427.00	1.128
426.50	1.154
426.00	1.178
425.50	1.202
425.00	1.226
424.50	1.247
424.00	1.268
423.50	1.286
423.00	1.303
422.50	1.318
422.00	1.331
421.50	1.342
421.00	1.351
420.50	1.357
420.00	1.360
419.50	1.362
419.00	1.360
418.50	1.357
418.00	1.350
417.50	1.341
417.00	1.329
416.50	1.315
416.00	1.298
415.50	1.280
415.00	1.260
414.50	1.239
414.00	1.216
413.50	1.191
413.00	1.165
412.50	1.137
412.00	1.109
411.50	1.079
411.00	1.048
410.50	1.017
410.00	0.985
409.50	0.953
409.00	0.922
408.50	0.891
408.00	0.860
407.50	0.831
407.00	0.802
406.50	0.774
406.00	0.747
405.50	0.721
405.00	0.696
404.50	0.672
404.00	0.648
403.50	0.626
403.00	0.604
402.50	0.583
402.00	0.563
401.50	0.545
401.00	0.527
400.50	0.510
400.00	0.494
399.50	0.479
399.00	0.465
398.50	0.452
398.00	0.439
397.50	0.427
397.00	0.415
396.50	0.404
396.00	0.394
395.50	0.384
395.00	0.374
394.50	0.364
394.00	0.355
393.50	0.347
393.00	0.338
392.50	0.330
392.00	0.323
391.50	0.315
391.00	0.308
390.50	0.301
390.00	0.295
389.50	0.288
389.00	0.282
388.50	0.276
388.00	0.270
387.50	0.265
387.00	0.259
386.50	0.254
386.00	0.248
385.50	0.243
385.00	0.238
384.50	0.233
384.00	0.229
383.50	0.224
383.00	0.220
382.50	0.216
382.00	0.212
381.50	0.209
381.00	0.205
380.50	0.201
380.00	0.198
379.50	0.194
379.00	0.191
378.50	0.188
378.00	0.185
377.50	0.182
377.00	0.180
376.50	0.177
376.00	0.175
375.50	0.172
375.00	0.170
374.50	0.168
374.00	0.166
373.50	0.164
373.00	0.162
372.50	0.160
372.00	0.158
371.50	0.157
371.00	0.155
370.50	0.154
370.00	0.152
369.50	0.151
369.00	0.149
368.50	0.148
368.00	0.147
367.50	0.146
367.00	0.144
366.50	0.143
366.00	0.142
365.50	0.141
365.00	0.140
364.50	0.139
364.00	0.138
363.50	0.138
363.00	0.137
362.50	0.136
362.00	0.136
361.50	0.135
361.00	0.135
360.50	0.134
360.00	0.133
359.50	0.132
359.00	0.132
358.50	0.131
358.00	0.131
357.50	0.131
357.00	0.131
356.50	0.130
356.00	0.130
355.50	0.130
355.00	0.130
354.50	0.130
354.00	0.130
353.50	0.130
353.00	0.131
352.50	0.131
352.00	0.131
351.50	0.131
351.00	0.131
350.50	0.131
350.00	0.131
349.50	0.131
349.00	0.132
348.50	0.132
348.00	0.132
347.50	0.133
347.00	0.133
346.50	0.133
346.00	0.134
345.50	0.134
345.00	0.135
344.50	0.135
344.00	0.136
343.50	0.136
343.00	0.137
342.50	0.137
342.00	0.138
341.50	0.138
341.00	0.139
340.50	0.139
340.00	0.140
339.50	0.141
339.00	0.141
338.50	0.142
338.00	0.142
337.50	0.143
337.00	0.144
336.50	0.145
336.00	0.145
335.50	0.146
335.00	0.147
334.50	0.147
334.00	0.148
333.50	0.149
333.00	0.150
332.50	0.151
332.00	0.152
331.50	0.153
331.00	0.153
330.50	0.154
330.00	0.155
329.50	0.156
329.00	0.157
328.50	0.157
328.00	0.159
327.50	0.160
327.00	0.161
326.50	0.162
326.00	0.163
325.50	0.164
325.00	0.165
324.50	0.166
324.00	0.167
323.50	0.168
323.00	0.168
322.50	0.169
322.00	0.170
321.50	0.171
321.00	0.172
320.50	0.173
320.00	0.174
319.50	0.175
319.00	0.175
318.50	0.175
318.00	0.176
317.50	0.177
317.00	0.179
316.50	0.180
316.00	0.181
315.50	0.182
315.00	0.184
314.50	0.185
314.00	0.186
313.50	0.187
313.00	0.189
312.50	0.190
312.00	0.191
311.50	0.193
311.00	0.194
310.50	0.195
310.00	0.196
309.50	0.197
309.00	0.198
308.50	0.199
308.00	0.200
307.50	0.201
307.00	0.202
306.50	0.203
306.00	0.204
305.50	0.205
305.00	0.205
304.50	0.206
304.00	0.207
303.50	0.208
303.00	0.208
302.50	0.209
302.00	0.210
301.50	0.211
301.00	0.212
300.50	0.212
300.00	0.213
299.50	0.214
299.00	0.214
298.50	0.215
298.00	0.216
297.50	0.217
297.00	0.217
296.50	0.218
296.00	0.219
295.50	0.219
295.00	0.220
294.50	0.220
294.00	0.221
293.50	0.221
293.00	0.222
292.50	0.222
292.00	0.223
291.50	0.223
291.00	0.223
290.50	0.224
290.00	0.224
289.50	0.224
289.00	0.224
288.50	0.224
288.00	0.224
287.50	0.224
287.00	0.224
286.50	0.224
286.00	0.224
285.50	0.224
285.00	0.224
284.50	0.224
284.00	0.223
283.50	0.223
283.00	0.223
282.50	0.223
282.00	0.222
281.50	0.222
281.00	0.222
280.50	0.222
280.00	0.221
279.50	0.221
279.00	0.221
278.50	0.221
278.00	0.220
277.50	0.220
277.00	0.220
276.50	0.220
276.00	0.220
275.50	0.220
275.00	0.220
274.50	0.220
274.00	0.220
273.50	0.220
273.00	0.221
272.50	0.221
272.00	0.221
271.50	0.221
271.00	0.221
270.50	0.222
270.00	0.222
269.50	0.223
269.00	0.223
268.50	0.224
268.00	0.224
267.50	0.225
267.00	0.225
266.50	0.226
266.00	0.227
265.50	0.227
265.00	0.228
264.50	0.229
264.00	0.230
263.50	0.231
263.00	0.231
262.50	0.232
262.00	0.233
261.50	0.233
261.00	0.234
260.50	0.235
260.00	0.236
259.50	0.237
259.00	0.238
258.50	0.238
258.00	0.239
257.50	0.240
257.00	0.241
256.50	0.242
256.00	0.243
255.50	0.244
255.00	0.245
254.50	0.246
254.00	0.247
253.50	0.248
253.00	0.249
252.50	0.250
252.00	0.252
251.50	0.254
251.00	0.255
250.50	0.257
250.00	0.258

