ª›ÃﬂŸ:	'Chlorosome@GUV
Ãß≤Ÿñº:	Ni_3C6F5_dithiophene_OH_max.UDS
ï™êÕì˙éû:	18:10:19, 10/15/2021
µÕﬂ⁄∞¿:	Administrator
∫“›ƒ:	'from tepidum in GUV:Lecithin/DOPG/Chol=85/15/5 solvent:OS

√ﬁ∞¿ÿΩƒ
nm	Abs
800.00	0.005
799.50	0.005
799.00	0.005
798.50	0.005
798.00	0.005
797.50	0.005
797.00	0.005
796.50	0.005
796.00	0.005
795.50	0.006
795.00	0.006
794.50	0.006
794.00	0.006
793.50	0.006
793.00	0.006
792.50	0.006
792.00	0.006
791.50	0.006
791.00	0.006
790.50	0.006
790.00	0.006
789.50	0.005
789.00	0.006
788.50	0.006
788.00	0.006
787.50	0.006
787.00	0.006
786.50	0.006
786.00	0.006
785.50	0.006
785.00	0.005
784.50	0.005
784.00	0.006
783.50	0.006
783.00	0.006
782.50	0.006
782.00	0.006
781.50	0.006
781.00	0.006
780.50	0.006
780.00	0.006
779.50	0.006
779.00	0.006
778.50	0.006
778.00	0.006
777.50	0.006
777.00	0.006
776.50	0.006
776.00	0.006
775.50	0.006
775.00	0.007
774.50	0.007
774.00	0.007
773.50	0.007
773.00	0.007
772.50	0.007
772.00	0.007
771.50	0.007
771.00	0.007
770.50	0.007
770.00	0.007
769.50	0.007
769.00	0.008
768.50	0.008
768.00	0.008
767.50	0.008
767.00	0.008
766.50	0.007
766.00	0.007
765.50	0.008
765.00	0.008
764.50	0.008
764.00	0.008
763.50	0.008
763.00	0.008
762.50	0.008
762.00	0.008
761.50	0.008
761.00	0.009
760.50	0.009
760.00	0.009
759.50	0.010
759.00	0.010
758.50	0.010
758.00	0.010
757.50	0.010
757.00	0.010
756.50	0.010
756.00	0.010
755.50	0.010
755.00	0.010
754.50	0.011
754.00	0.011
753.50	0.011
753.00	0.011
752.50	0.011
752.00	0.012
751.50	0.012
751.00	0.012
750.50	0.012
750.00	0.012
749.50	0.012
749.00	0.013
748.50	0.013
748.00	0.013
747.50	0.013
747.00	0.013
746.50	0.013
746.00	0.014
745.50	0.014
745.00	0.014
744.50	0.014
744.00	0.015
743.50	0.015
743.00	0.015
742.50	0.016
742.00	0.016
741.50	0.016
741.00	0.017
740.50	0.017
740.00	0.017
739.50	0.017
739.00	0.018
738.50	0.018
738.00	0.018
737.50	0.019
737.00	0.019
736.50	0.020
736.00	0.020
735.50	0.021
735.00	0.021
734.50	0.022
734.00	0.022
733.50	0.023
733.00	0.024
732.50	0.024
732.00	0.025
731.50	0.026
731.00	0.026
730.50	0.027
730.00	0.028
729.50	0.028
729.00	0.029
728.50	0.030
728.00	0.030
727.50	0.032
727.00	0.033
726.50	0.034
726.00	0.035
725.50	0.036
725.00	0.037
724.50	0.039
724.00	0.039
723.50	0.040
723.00	0.042
722.50	0.043
722.00	0.044
721.50	0.046
721.00	0.047
720.50	0.049
720.00	0.051
719.50	0.052
719.00	0.054
718.50	0.055
718.00	0.057
717.50	0.059
717.00	0.061
716.50	0.063
716.00	0.064
715.50	0.066
715.00	0.068
714.50	0.070
714.00	0.072
713.50	0.074
713.00	0.076
712.50	0.079
712.00	0.081
711.50	0.084
711.00	0.086
710.50	0.089
710.00	0.092
709.50	0.094
709.00	0.097
708.50	0.100
708.00	0.102
707.50	0.105
707.00	0.108
706.50	0.112
706.00	0.115
705.50	0.118
705.00	0.121
704.50	0.124
704.00	0.128
703.50	0.131
703.00	0.135
702.50	0.138
702.00	0.141
701.50	0.145
701.00	0.148
700.50	0.151
700.00	0.155
699.50	0.158
699.00	0.162
698.50	0.165
698.00	0.169
697.50	0.173
697.00	0.176
696.50	0.180
696.00	0.184
695.50	0.187
695.00	0.190
694.50	0.194
694.00	0.197
693.50	0.201
693.00	0.204
692.50	0.207
692.00	0.211
691.50	0.214
691.00	0.216
690.50	0.219
690.00	0.222
689.50	0.225
689.00	0.228
688.50	0.230
688.00	0.233
687.50	0.235
687.00	0.237
686.50	0.239
686.00	0.241
685.50	0.243
685.00	0.245
684.50	0.246
684.00	0.248
683.50	0.249
683.00	0.250
682.50	0.251
682.00	0.252
681.50	0.253
681.00	0.254
680.50	0.254
680.00	0.254
679.50	0.254
679.00	0.254
678.50	0.254
678.00	0.253
677.50	0.253
677.00	0.252
676.50	0.252
676.00	0.251
675.50	0.249
675.00	0.248
674.50	0.247
674.00	0.245
673.50	0.243
673.00	0.241
672.50	0.239
672.00	0.237
671.50	0.235
671.00	0.233
670.50	0.231
670.00	0.229
669.50	0.226
669.00	0.224
668.50	0.221
668.00	0.219
667.50	0.216
667.00	0.213
666.50	0.210
666.00	0.207
665.50	0.204
665.00	0.201
664.50	0.198
664.00	0.195
663.50	0.192
663.00	0.189
662.50	0.186
662.00	0.183
661.50	0.181
661.00	0.178
660.50	0.175
660.00	0.173
659.50	0.170
659.00	0.167
658.50	0.164
658.00	0.161
657.50	0.159
657.00	0.156
656.50	0.153
656.00	0.151
655.50	0.149
655.00	0.147
654.50	0.144
654.00	0.142
653.50	0.140
653.00	0.138
652.50	0.136
652.00	0.133
651.50	0.131
651.00	0.130
650.50	0.128
650.00	0.126
649.50	0.125
649.00	0.123
648.50	0.122
648.00	0.120
647.50	0.119
647.00	0.117
646.50	0.116
646.00	0.115
645.50	0.114
645.00	0.113
644.50	0.112
644.00	0.112
643.50	0.111
643.00	0.110
642.50	0.109
642.00	0.108
641.50	0.108
641.00	0.107
640.50	0.106
640.00	0.106
639.50	0.105
639.00	0.105
638.50	0.104
638.00	0.103
637.50	0.103
637.00	0.103
636.50	0.102
636.00	0.102
635.50	0.102
635.00	0.101
634.50	0.101
634.00	0.101
633.50	0.100
633.00	0.100
632.50	0.100
632.00	0.100
631.50	0.099
631.00	0.099
630.50	0.099
630.00	0.099
629.50	0.099
629.00	0.098
628.50	0.098
628.00	0.097
627.50	0.097
627.00	0.097
626.50	0.097
626.00	0.096
625.50	0.096
625.00	0.096
624.50	0.095
624.00	0.095
623.50	0.094
623.00	0.093
622.50	0.093
622.00	0.093
621.50	0.093
621.00	0.092
620.50	0.092
620.00	0.092
619.50	0.091
619.00	0.091
618.50	0.090
618.00	0.090
617.50	0.090
617.00	0.090
616.50	0.090
616.00	0.090
615.50	0.090
615.00	0.090
614.50	0.090
614.00	0.089
613.50	0.089
613.00	0.089
612.50	0.089
612.00	0.088
611.50	0.088
611.00	0.088
610.50	0.087
610.00	0.087
609.50	0.087
609.00	0.086
608.50	0.086
608.00	0.085
607.50	0.084
607.00	0.084
606.50	0.083
606.00	0.082
605.50	0.082
605.00	0.081
604.50	0.080
604.00	0.080
603.50	0.079
603.00	0.078
602.50	0.078
602.00	0.077
601.50	0.076
601.00	0.076
600.50	0.075
600.00	0.075
599.50	0.075
599.00	0.074
598.50	0.074
598.00	0.074
597.50	0.075
597.00	0.075
596.50	0.075
596.00	0.075
595.50	0.075
595.00	0.075
594.50	0.075
594.00	0.075
593.50	0.074
593.00	0.075
592.50	0.075
592.00	0.075
591.50	0.075
591.00	0.075
590.50	0.075
590.00	0.075
589.50	0.075
589.00	0.075
588.50	0.075
588.00	0.074
587.50	0.074
587.00	0.073
586.50	0.073
586.00	0.072
585.50	0.072
585.00	0.071
584.50	0.071
584.00	0.070
583.50	0.070
583.00	0.069
582.50	0.068
582.00	0.067
581.50	0.067
581.00	0.066
580.50	0.065
580.00	0.064
579.50	0.063
579.00	0.063
578.50	0.062
578.00	0.061
577.50	0.060
577.00	0.059
576.50	0.058
576.00	0.057
575.50	0.057
575.00	0.056
574.50	0.055
574.00	0.054
573.50	0.054
573.00	0.053
572.50	0.052
572.00	0.052
571.50	0.051
571.00	0.050
570.50	0.050
570.00	0.049
569.50	0.049
569.00	0.049
568.50	0.048
568.00	0.048
567.50	0.047
567.00	0.047
566.50	0.047
566.00	0.047
565.50	0.047
565.00	0.046
564.50	0.046
564.00	0.046
563.50	0.046
563.00	0.046
562.50	0.046
562.00	0.046
561.50	0.046
561.00	0.046
560.50	0.046
560.00	0.046
559.50	0.046
559.00	0.047
558.50	0.047
558.00	0.047
557.50	0.047
557.00	0.047
556.50	0.048
556.00	0.048
555.50	0.048
555.00	0.049
554.50	0.049
554.00	0.050
553.50	0.050
553.00	0.050
552.50	0.051
552.00	0.052
551.50	0.052
551.00	0.053
550.50	0.053
550.00	0.054
549.50	0.054
549.00	0.054
548.50	0.055
548.00	0.056
547.50	0.056
547.00	0.057
546.50	0.057
546.00	0.058
545.50	0.058
545.00	0.059
544.50	0.059
544.00	0.060
543.50	0.061
543.00	0.061
542.50	0.061
542.00	0.062
541.50	0.062
541.00	0.062
540.50	0.062
540.00	0.062
539.50	0.063
539.00	0.063
538.50	0.062
538.00	0.062
537.50	0.062
537.00	0.062
536.50	0.062
536.00	0.062
535.50	0.061
535.00	0.061
534.50	0.061
534.00	0.060
533.50	0.060
533.00	0.059
532.50	0.059
532.00	0.058
531.50	0.058
531.00	0.057
530.50	0.057
530.00	0.056
529.50	0.056
529.00	0.055
528.50	0.054
528.00	0.053
527.50	0.053
527.00	0.052
526.50	0.051
526.00	0.050
525.50	0.050
525.00	0.049
524.50	0.049
524.00	0.048
523.50	0.048
523.00	0.047
522.50	0.046
522.00	0.046
521.50	0.045
521.00	0.045
520.50	0.044
520.00	0.044
519.50	0.044
519.00	0.044
518.50	0.044
518.00	0.043
517.50	0.043
517.00	0.043
516.50	0.043
516.00	0.042
515.50	0.042
515.00	0.042
514.50	0.042
514.00	0.042
513.50	0.043
513.00	0.043
512.50	0.043
512.00	0.043
511.50	0.043
511.00	0.043
510.50	0.043
510.00	0.044
509.50	0.044
509.00	0.044
508.50	0.045
508.00	0.045
507.50	0.045
507.00	0.045
506.50	0.046
506.00	0.046
505.50	0.047
505.00	0.047
504.50	0.048
504.00	0.048
503.50	0.049
503.00	0.049
502.50	0.050
502.00	0.050
501.50	0.051
501.00	0.052
500.50	0.052
500.00	0.053
499.50	0.053
499.00	0.054
498.50	0.054
498.00	0.055
497.50	0.056
497.00	0.056
496.50	0.057
496.00	0.058
495.50	0.059
495.00	0.059
494.50	0.060
494.00	0.061
493.50	0.061
493.00	0.062
492.50	0.063
492.00	0.064
491.50	0.065
491.00	0.066
490.50	0.067
490.00	0.068
489.50	0.068
489.00	0.070
488.50	0.071
488.00	0.072
487.50	0.073
487.00	0.075
486.50	0.076
486.00	0.077
485.50	0.079
485.00	0.080
484.50	0.082
484.00	0.083
483.50	0.085
483.00	0.087
482.50	0.089
482.00	0.091
481.50	0.093
481.00	0.095
480.50	0.098
480.00	0.100
479.50	0.103
479.00	0.106
478.50	0.109
478.00	0.112
477.50	0.115
477.00	0.118
476.50	0.122
476.00	0.126
475.50	0.129
475.00	0.133
474.50	0.137
474.00	0.142
473.50	0.147
473.00	0.152
472.50	0.157
472.00	0.162
471.50	0.168
471.00	0.174
470.50	0.179
470.00	0.185
469.50	0.192
469.00	0.198
468.50	0.205
468.00	0.212
467.50	0.220
467.00	0.228
466.50	0.236
466.00	0.244
465.50	0.253
465.00	0.262
464.50	0.272
464.00	0.281
463.50	0.291
463.00	0.301
462.50	0.312
462.00	0.322
461.50	0.333
461.00	0.344
460.50	0.355
460.00	0.367
459.50	0.379
459.00	0.391
458.50	0.404
458.00	0.417
457.50	0.430
457.00	0.444
456.50	0.458
456.00	0.472
455.50	0.486
455.00	0.500
454.50	0.514
454.00	0.529
453.50	0.544
453.00	0.558
452.50	0.573
452.00	0.589
451.50	0.604
451.00	0.620
450.50	0.636
450.00	0.652
449.50	0.668
449.00	0.684
448.50	0.700
448.00	0.716
447.50	0.731
447.00	0.747
446.50	0.762
446.00	0.776
445.50	0.791
445.00	0.805
444.50	0.819
444.00	0.832
443.50	0.844
443.00	0.856
442.50	0.867
442.00	0.878
441.50	0.887
441.00	0.896
440.50	0.904
440.00	0.911
439.50	0.917
439.00	0.922
438.50	0.926
438.00	0.928
437.50	0.931
437.00	0.932
436.50	0.932
436.00	0.931
435.50	0.930
435.00	0.928
434.50	0.925
434.00	0.921
433.50	0.916
433.00	0.911
432.50	0.905
432.00	0.899
431.50	0.893
431.00	0.886
430.50	0.879
430.00	0.872
429.50	0.864
429.00	0.856
428.50	0.848
428.00	0.840
427.50	0.832
427.00	0.823
426.50	0.815
426.00	0.806
425.50	0.797
425.00	0.787
424.50	0.778
424.00	0.769
423.50	0.759
423.00	0.750
422.50	0.740
422.00	0.731
421.50	0.721
421.00	0.711
420.50	0.701
420.00	0.691
419.50	0.681
419.00	0.671
418.50	0.660
418.00	0.650
417.50	0.639
417.00	0.629
416.50	0.618
416.00	0.608
415.50	0.598
415.00	0.588
414.50	0.579
414.00	0.569
413.50	0.560
413.00	0.550
412.50	0.541
412.00	0.532
411.50	0.522
411.00	0.512
410.50	0.502
410.00	0.492
409.50	0.483
409.00	0.473
408.50	0.463
408.00	0.454
407.50	0.445
407.00	0.436
406.50	0.428
406.00	0.419
405.50	0.412
405.00	0.404
404.50	0.397
404.00	0.390
403.50	0.383
403.00	0.377
402.50	0.371
402.00	0.365
401.50	0.359
401.00	0.354
400.50	0.349
400.00	0.344
399.50	0.339
399.00	0.335
398.50	0.330
398.00	0.326
397.50	0.323
397.00	0.319
396.50	0.315
396.00	0.312
395.50	0.309
395.00	0.306
394.50	0.303
394.00	0.301
393.50	0.299
393.00	0.297
392.50	0.295
392.00	0.293
391.50	0.292
391.00	0.290
390.50	0.289
390.00	0.288
389.50	0.287
389.00	0.287
388.50	0.286
388.00	0.286
387.50	0.285
387.00	0.284
386.50	0.284
386.00	0.283
385.50	0.283
385.00	0.282
384.50	0.282
384.00	0.281
383.50	0.280
383.00	0.280
382.50	0.279
382.00	0.278
381.50	0.277
381.00	0.276
380.50	0.275
380.00	0.273
379.50	0.272
379.00	0.270
378.50	0.268
378.00	0.266
377.50	0.264
377.00	0.262
376.50	0.260
376.00	0.258
375.50	0.256
375.00	0.253
374.50	0.251
374.00	0.249
373.50	0.247
373.00	0.244
372.50	0.242
372.00	0.240
371.50	0.237
371.00	0.235
370.50	0.233
370.00	0.230
369.50	0.228
369.00	0.226
368.50	0.223
368.00	0.221
367.50	0.219
367.00	0.217
366.50	0.216
366.00	0.214
365.50	0.212
365.00	0.210
364.50	0.208
364.00	0.207
363.50	0.205
363.00	0.203
362.50	0.202
362.00	0.200
361.50	0.199
361.00	0.198
360.50	0.196
360.00	0.195
359.50	0.194
359.00	0.192
358.50	0.191
358.00	0.190
357.50	0.189
357.00	0.188
356.50	0.187
356.00	0.186
355.50	0.185
355.00	0.185
354.50	0.184
354.00	0.183
353.50	0.183
353.00	0.182
352.50	0.182
352.00	0.181
351.50	0.181
351.00	0.181
350.50	0.180
350.00	0.180
349.50	0.180
349.00	0.180
348.50	0.181
348.00	0.181
347.50	0.181
347.00	0.181
346.50	0.182
346.00	0.182
345.50	0.183
345.00	0.183
344.50	0.184
344.00	0.185
343.50	0.186
343.00	0.186
342.50	0.187
342.00	0.188
341.50	0.189
341.00	0.190
340.50	0.191
340.00	0.193
339.50	0.194
339.00	0.196
338.50	0.197
338.00	0.198
337.50	0.200
337.00	0.202
336.50	0.203
336.00	0.205
335.50	0.207
335.00	0.208
334.50	0.210
334.00	0.212
333.50	0.213
333.00	0.214
332.50	0.215
332.00	0.217
331.50	0.218
331.00	0.219
330.50	0.220
330.00	0.221
329.50	0.222
329.00	0.222
328.50	0.223
328.00	0.223
327.50	0.224
327.00	0.225
326.50	0.225
326.00	0.226
325.50	0.226
325.00	0.227
324.50	0.227
324.00	0.228
323.50	0.228
323.00	0.228
322.50	0.228
322.00	0.228
321.50	0.229
321.00	0.230
320.50	0.229
320.00	0.229
319.50	0.228
319.00	0.226
318.50	0.225
318.00	0.224
317.50	0.225
317.00	0.226
316.50	0.227
316.00	0.228
315.50	0.228
315.00	0.228
314.50	0.228
314.00	0.227
313.50	0.226
313.00	0.227
312.50	0.227
312.00	0.227
311.50	0.228
311.00	0.228
310.50	0.228
310.00	0.228
309.50	0.228
309.00	0.229
308.50	0.229
308.00	0.229
307.50	0.230
307.00	0.230
306.50	0.231
306.00	0.231
305.50	0.232
305.00	0.233
304.50	0.233
304.00	0.234
303.50	0.235
303.00	0.236
302.50	0.237
302.00	0.238
301.50	0.239
301.00	0.241
300.50	0.243
300.00	0.244
299.50	0.246
299.00	0.248
298.50	0.249
298.00	0.251
297.50	0.253
297.00	0.254
296.50	0.256
296.00	0.257
295.50	0.258
295.00	0.260
294.50	0.261
294.00	0.263
293.50	0.264
293.00	0.266
292.50	0.268
292.00	0.269
291.50	0.270
291.00	0.272
290.50	0.273
290.00	0.274
289.50	0.276
289.00	0.276
288.50	0.277
288.00	0.278
287.50	0.279
287.00	0.279
286.50	0.280
286.00	0.280
285.50	0.281
285.00	0.281
284.50	0.282
284.00	0.282
283.50	0.282
283.00	0.282
282.50	0.282
282.00	0.281
281.50	0.281
281.00	0.281
280.50	0.280
280.00	0.280
279.50	0.280
279.00	0.279
278.50	0.279
278.00	0.278
277.50	0.278
277.00	0.278
276.50	0.278
276.00	0.278
275.50	0.278
275.00	0.278
274.50	0.277
274.00	0.277
273.50	0.277
273.00	0.277
272.50	0.277
272.00	0.277
271.50	0.277
271.00	0.277
270.50	0.278
270.00	0.278
269.50	0.278
269.00	0.279
268.50	0.279
268.00	0.280
267.50	0.280
267.00	0.281
266.50	0.282
266.00	0.282
265.50	0.283
265.00	0.284
264.50	0.284
264.00	0.285
263.50	0.286
263.00	0.286
262.50	0.287
262.00	0.288
261.50	0.289
261.00	0.290
260.50	0.292
260.00	0.293
259.50	0.294
259.00	0.296
258.50	0.297
258.00	0.298
257.50	0.300
257.00	0.301
256.50	0.302
256.00	0.303
255.50	0.304
255.00	0.305
254.50	0.306
254.00	0.307
253.50	0.308
253.00	0.309
252.50	0.310
252.00	0.311
251.50	0.312
251.00	0.313
250.50	0.313
250.00	0.314

