ª›ÃﬂŸ:	'Chlorosome@GUV
Ãß≤Ÿñº:	Ni_3C6F5_thiophene_OH_7.UDS
ï™êÕì˙éû:	16:57:00, 10/15/2021
µÕﬂ⁄∞¿:	Administrator
∫“›ƒ:	'from tepidum in GUV:Lecithin/DOPG/Chol=85/15/5 solvent:OS

√ﬁ∞¿ÿΩƒ
nm	Abs
800.00	0.003
799.50	0.003
799.00	0.003
798.50	0.003
798.00	0.004
797.50	0.004
797.00	0.004
796.50	0.004
796.00	0.004
795.50	0.004
795.00	0.004
794.50	0.004
794.00	0.004
793.50	0.004
793.00	0.004
792.50	0.004
792.00	0.004
791.50	0.004
791.00	0.004
790.50	0.004
790.00	0.004
789.50	0.004
789.00	0.004
788.50	0.004
788.00	0.004
787.50	0.004
787.00	0.004
786.50	0.004
786.00	0.003
785.50	0.003
785.00	0.003
784.50	0.003
784.00	0.004
783.50	0.004
783.00	0.004
782.50	0.004
782.00	0.004
781.50	0.004
781.00	0.004
780.50	0.004
780.00	0.004
779.50	0.004
779.00	0.004
778.50	0.004
778.00	0.005
777.50	0.005
777.00	0.005
776.50	0.005
776.00	0.005
775.50	0.004
775.00	0.004
774.50	0.004
774.00	0.004
773.50	0.004
773.00	0.005
772.50	0.005
772.00	0.005
771.50	0.005
771.00	0.005
770.50	0.005
770.00	0.005
769.50	0.005
769.00	0.005
768.50	0.005
768.00	0.005
767.50	0.005
767.00	0.005
766.50	0.005
766.00	0.005
765.50	0.005
765.00	0.006
764.50	0.006
764.00	0.006
763.50	0.006
763.00	0.006
762.50	0.005
762.00	0.005
761.50	0.006
761.00	0.006
760.50	0.006
760.00	0.006
759.50	0.007
759.00	0.007
758.50	0.007
758.00	0.007
757.50	0.007
757.00	0.007
756.50	0.007
756.00	0.007
755.50	0.007
755.00	0.007
754.50	0.007
754.00	0.007
753.50	0.007
753.00	0.007
752.50	0.008
752.00	0.008
751.50	0.008
751.00	0.008
750.50	0.008
750.00	0.008
749.50	0.008
749.00	0.008
748.50	0.008
748.00	0.008
747.50	0.009
747.00	0.009
746.50	0.009
746.00	0.010
745.50	0.010
745.00	0.010
744.50	0.010
744.00	0.010
743.50	0.011
743.00	0.011
742.50	0.011
742.00	0.011
741.50	0.012
741.00	0.012
740.50	0.012
740.00	0.012
739.50	0.012
739.00	0.012
738.50	0.013
738.00	0.013
737.50	0.014
737.00	0.014
736.50	0.014
736.00	0.015
735.50	0.015
735.00	0.015
734.50	0.015
734.00	0.016
733.50	0.016
733.00	0.017
732.50	0.017
732.00	0.018
731.50	0.018
731.00	0.019
730.50	0.019
730.00	0.020
729.50	0.020
729.00	0.020
728.50	0.021
728.00	0.021
727.50	0.022
727.00	0.023
726.50	0.024
726.00	0.025
725.50	0.026
725.00	0.026
724.50	0.027
724.00	0.028
723.50	0.029
723.00	0.029
722.50	0.031
722.00	0.032
721.50	0.033
721.00	0.034
720.50	0.035
720.00	0.036
719.50	0.037
719.00	0.038
718.50	0.040
718.00	0.041
717.50	0.042
717.00	0.043
716.50	0.045
716.00	0.046
715.50	0.047
715.00	0.049
714.50	0.050
714.00	0.052
713.50	0.053
713.00	0.055
712.50	0.056
712.00	0.058
711.50	0.060
711.00	0.062
710.50	0.064
710.00	0.066
709.50	0.068
709.00	0.070
708.50	0.072
708.00	0.073
707.50	0.075
707.00	0.078
706.50	0.080
706.00	0.082
705.50	0.085
705.00	0.087
704.50	0.090
704.00	0.092
703.50	0.095
703.00	0.097
702.50	0.099
702.00	0.102
701.50	0.105
701.00	0.107
700.50	0.110
700.00	0.112
699.50	0.115
699.00	0.118
698.50	0.120
698.00	0.123
697.50	0.126
697.00	0.129
696.50	0.131
696.00	0.134
695.50	0.137
695.00	0.140
694.50	0.142
694.00	0.145
693.50	0.147
693.00	0.150
692.50	0.152
692.00	0.155
691.50	0.157
691.00	0.160
690.50	0.162
690.00	0.164
689.50	0.167
689.00	0.169
688.50	0.171
688.00	0.173
687.50	0.175
687.00	0.176
686.50	0.178
686.00	0.180
685.50	0.182
685.00	0.183
684.50	0.184
684.00	0.185
683.50	0.187
683.00	0.188
682.50	0.189
682.00	0.190
681.50	0.191
681.00	0.191
680.50	0.192
680.00	0.192
679.50	0.192
679.00	0.193
678.50	0.193
678.00	0.193
677.50	0.193
677.00	0.192
676.50	0.192
676.00	0.192
675.50	0.191
675.00	0.190
674.50	0.189
674.00	0.188
673.50	0.187
673.00	0.185
672.50	0.184
672.00	0.183
671.50	0.181
671.00	0.180
670.50	0.178
670.00	0.177
669.50	0.175
669.00	0.173
668.50	0.172
668.00	0.170
667.50	0.168
667.00	0.166
666.50	0.164
666.00	0.162
665.50	0.159
665.00	0.157
664.50	0.155
664.00	0.152
663.50	0.150
663.00	0.148
662.50	0.146
662.00	0.143
661.50	0.141
661.00	0.139
660.50	0.137
660.00	0.134
659.50	0.132
659.00	0.130
658.50	0.127
658.00	0.125
657.50	0.123
657.00	0.121
656.50	0.119
656.00	0.117
655.50	0.115
655.00	0.113
654.50	0.112
654.00	0.110
653.50	0.108
653.00	0.106
652.50	0.104
652.00	0.102
651.50	0.100
651.00	0.099
650.50	0.098
650.00	0.096
649.50	0.095
649.00	0.094
648.50	0.092
648.00	0.091
647.50	0.089
647.00	0.088
646.50	0.087
646.00	0.086
645.50	0.085
645.00	0.084
644.50	0.084
644.00	0.083
643.50	0.082
643.00	0.081
642.50	0.081
642.00	0.080
641.50	0.079
641.00	0.078
640.50	0.078
640.00	0.077
639.50	0.076
639.00	0.076
638.50	0.076
638.00	0.075
637.50	0.075
637.00	0.074
636.50	0.074
636.00	0.073
635.50	0.073
635.00	0.073
634.50	0.072
634.00	0.072
633.50	0.072
633.00	0.072
632.50	0.071
632.00	0.071
631.50	0.070
631.00	0.070
630.50	0.070
630.00	0.070
629.50	0.070
629.00	0.069
628.50	0.069
628.00	0.068
627.50	0.068
627.00	0.067
626.50	0.067
626.00	0.067
625.50	0.067
625.00	0.067
624.50	0.067
624.00	0.066
623.50	0.066
623.00	0.065
622.50	0.065
622.00	0.064
621.50	0.064
621.00	0.064
620.50	0.063
620.00	0.063
619.50	0.063
619.00	0.062
618.50	0.061
618.00	0.061
617.50	0.060
617.00	0.060
616.50	0.059
616.00	0.059
615.50	0.059
615.00	0.058
614.50	0.058
614.00	0.058
613.50	0.057
613.00	0.057
612.50	0.056
612.00	0.055
611.50	0.055
611.00	0.054
610.50	0.053
610.00	0.053
609.50	0.052
609.00	0.052
608.50	0.052
608.00	0.051
607.50	0.051
607.00	0.050
606.50	0.050
606.00	0.049
605.50	0.048
605.00	0.048
604.50	0.047
604.00	0.047
603.50	0.047
603.00	0.046
602.50	0.046
602.00	0.046
601.50	0.045
601.00	0.045
600.50	0.044
600.00	0.044
599.50	0.044
599.00	0.043
598.50	0.043
598.00	0.043
597.50	0.043
597.00	0.043
596.50	0.043
596.00	0.043
595.50	0.043
595.00	0.043
594.50	0.043
594.00	0.043
593.50	0.043
593.00	0.043
592.50	0.043
592.00	0.044
591.50	0.044
591.00	0.044
590.50	0.044
590.00	0.045
589.50	0.045
589.00	0.045
588.50	0.045
588.00	0.046
587.50	0.046
587.00	0.046
586.50	0.046
586.00	0.046
585.50	0.047
585.00	0.047
584.50	0.047
584.00	0.047
583.50	0.047
583.00	0.048
582.50	0.048
582.00	0.048
581.50	0.048
581.00	0.048
580.50	0.048
580.00	0.048
579.50	0.048
579.00	0.048
578.50	0.047
578.00	0.047
577.50	0.047
577.00	0.047
576.50	0.047
576.00	0.047
575.50	0.047
575.00	0.046
574.50	0.046
574.00	0.045
573.50	0.045
573.00	0.045
572.50	0.044
572.00	0.044
571.50	0.043
571.00	0.043
570.50	0.042
570.00	0.042
569.50	0.042
569.00	0.042
568.50	0.041
568.00	0.041
567.50	0.040
567.00	0.040
566.50	0.040
566.00	0.040
565.50	0.040
565.00	0.039
564.50	0.039
564.00	0.039
563.50	0.039
563.00	0.038
562.50	0.038
562.00	0.038
561.50	0.038
561.00	0.038
560.50	0.038
560.00	0.038
559.50	0.038
559.00	0.038
558.50	0.038
558.00	0.038
557.50	0.038
557.00	0.038
556.50	0.038
556.00	0.039
555.50	0.039
555.00	0.039
554.50	0.040
554.00	0.040
553.50	0.041
553.00	0.041
552.50	0.042
552.00	0.042
551.50	0.043
551.00	0.043
550.50	0.044
550.00	0.044
549.50	0.045
549.00	0.045
548.50	0.046
548.00	0.046
547.50	0.047
547.00	0.048
546.50	0.049
546.00	0.049
545.50	0.050
545.00	0.051
544.50	0.052
544.00	0.053
543.50	0.054
543.00	0.054
542.50	0.055
542.00	0.056
541.50	0.057
541.00	0.057
540.50	0.058
540.00	0.058
539.50	0.058
539.00	0.059
538.50	0.059
538.00	0.059
537.50	0.060
537.00	0.060
536.50	0.060
536.00	0.060
535.50	0.060
535.00	0.060
534.50	0.059
534.00	0.059
533.50	0.059
533.00	0.058
532.50	0.058
532.00	0.057
531.50	0.057
531.00	0.056
530.50	0.056
530.00	0.055
529.50	0.054
529.00	0.053
528.50	0.052
528.00	0.051
527.50	0.051
527.00	0.050
526.50	0.049
526.00	0.048
525.50	0.047
525.00	0.046
524.50	0.046
524.00	0.045
523.50	0.044
523.00	0.043
522.50	0.043
522.00	0.042
521.50	0.041
521.00	0.041
520.50	0.040
520.00	0.040
519.50	0.039
519.00	0.039
518.50	0.038
518.00	0.038
517.50	0.037
517.00	0.037
516.50	0.037
516.00	0.037
515.50	0.036
515.00	0.036
514.50	0.036
514.00	0.036
513.50	0.036
513.00	0.036
512.50	0.036
512.00	0.036
511.50	0.036
511.00	0.036
510.50	0.036
510.00	0.036
509.50	0.036
509.00	0.036
508.50	0.036
508.00	0.036
507.50	0.037
507.00	0.037
506.50	0.037
506.00	0.038
505.50	0.038
505.00	0.038
504.50	0.038
504.00	0.039
503.50	0.039
503.00	0.039
502.50	0.040
502.00	0.040
501.50	0.040
501.00	0.041
500.50	0.041
500.00	0.041
499.50	0.042
499.00	0.042
498.50	0.042
498.00	0.043
497.50	0.043
497.00	0.043
496.50	0.044
496.00	0.044
495.50	0.044
495.00	0.045
494.50	0.045
494.00	0.045
493.50	0.046
493.00	0.046
492.50	0.047
492.00	0.047
491.50	0.047
491.00	0.047
490.50	0.048
490.00	0.048
489.50	0.048
489.00	0.049
488.50	0.049
488.00	0.050
487.50	0.050
487.00	0.051
486.50	0.052
486.00	0.053
485.50	0.053
485.00	0.054
484.50	0.055
484.00	0.055
483.50	0.056
483.00	0.057
482.50	0.057
482.00	0.058
481.50	0.059
481.00	0.061
480.50	0.062
480.00	0.063
479.50	0.064
479.00	0.065
478.50	0.066
478.00	0.068
477.50	0.069
477.00	0.071
476.50	0.073
476.00	0.074
475.50	0.076
475.00	0.078
474.50	0.081
474.00	0.083
473.50	0.086
473.00	0.088
472.50	0.091
472.00	0.094
471.50	0.097
471.00	0.100
470.50	0.103
470.00	0.107
469.50	0.110
469.00	0.114
468.50	0.118
468.00	0.123
467.50	0.127
467.00	0.132
466.50	0.138
466.00	0.143
465.50	0.149
465.00	0.156
464.50	0.162
464.00	0.169
463.50	0.177
463.00	0.185
462.50	0.193
462.00	0.201
461.50	0.210
461.00	0.219
460.50	0.229
460.00	0.239
459.50	0.249
459.00	0.261
458.50	0.272
458.00	0.284
457.50	0.297
457.00	0.310
456.50	0.323
456.00	0.337
455.50	0.350
455.00	0.365
454.50	0.379
454.00	0.394
453.50	0.408
453.00	0.422
452.50	0.436
452.00	0.450
451.50	0.464
451.00	0.478
450.50	0.493
450.00	0.509
449.50	0.524
449.00	0.539
448.50	0.553
448.00	0.567
447.50	0.580
447.00	0.592
446.50	0.604
446.00	0.616
445.50	0.627
445.00	0.637
444.50	0.647
444.00	0.655
443.50	0.664
443.00	0.672
442.50	0.679
442.00	0.685
441.50	0.691
441.00	0.697
440.50	0.702
440.00	0.706
439.50	0.710
439.00	0.714
438.50	0.717
438.00	0.721
437.50	0.724
437.00	0.727
436.50	0.731
436.00	0.734
435.50	0.737
435.00	0.741
434.50	0.744
434.00	0.748
433.50	0.752
433.00	0.755
432.50	0.759
432.00	0.763
431.50	0.767
431.00	0.771
430.50	0.774
430.00	0.778
429.50	0.781
429.00	0.785
428.50	0.788
428.00	0.790
427.50	0.793
427.00	0.794
426.50	0.796
426.00	0.796
425.50	0.796
425.00	0.796
424.50	0.794
424.00	0.793
423.50	0.790
423.00	0.787
422.50	0.783
422.00	0.778
421.50	0.772
421.00	0.767
420.50	0.760
420.00	0.753
419.50	0.745
419.00	0.736
418.50	0.727
418.00	0.717
417.50	0.707
417.00	0.696
416.50	0.685
416.00	0.674
415.50	0.663
415.00	0.651
414.50	0.640
414.00	0.628
413.50	0.616
413.00	0.604
412.50	0.592
412.00	0.579
411.50	0.567
411.00	0.554
410.50	0.541
410.00	0.529
409.50	0.516
409.00	0.504
408.50	0.491
408.00	0.479
407.50	0.467
407.00	0.456
406.50	0.445
406.00	0.434
405.50	0.423
405.00	0.413
404.50	0.403
404.00	0.394
403.50	0.385
403.00	0.375
402.50	0.366
402.00	0.358
401.50	0.349
401.00	0.341
400.50	0.333
400.00	0.326
399.50	0.319
399.00	0.312
398.50	0.305
398.00	0.299
397.50	0.292
397.00	0.286
396.50	0.281
396.00	0.276
395.50	0.271
395.00	0.266
394.50	0.261
394.00	0.257
393.50	0.252
393.00	0.248
392.50	0.245
392.00	0.241
391.50	0.239
391.00	0.236
390.50	0.233
390.00	0.231
389.50	0.229
389.00	0.227
388.50	0.225
388.00	0.223
387.50	0.221
387.00	0.220
386.50	0.218
386.00	0.217
385.50	0.216
385.00	0.214
384.50	0.213
384.00	0.212
383.50	0.211
383.00	0.210
382.50	0.209
382.00	0.208
381.50	0.207
381.00	0.206
380.50	0.205
380.00	0.204
379.50	0.203
379.00	0.202
378.50	0.200
378.00	0.199
377.50	0.197
377.00	0.196
376.50	0.194
376.00	0.192
375.50	0.190
375.00	0.189
374.50	0.187
374.00	0.185
373.50	0.183
373.00	0.181
372.50	0.179
372.00	0.177
371.50	0.175
371.00	0.173
370.50	0.171
370.00	0.170
369.50	0.168
369.00	0.166
368.50	0.165
368.00	0.163
367.50	0.162
367.00	0.160
366.50	0.159
366.00	0.157
365.50	0.156
365.00	0.155
364.50	0.154
364.00	0.153
363.50	0.152
363.00	0.151
362.50	0.150
362.00	0.150
361.50	0.149
361.00	0.148
360.50	0.148
360.00	0.147
359.50	0.147
359.00	0.146
358.50	0.146
358.00	0.145
357.50	0.145
357.00	0.145
356.50	0.145
356.00	0.145
355.50	0.145
355.00	0.145
354.50	0.145
354.00	0.146
353.50	0.146
353.00	0.146
352.50	0.147
352.00	0.147
351.50	0.148
351.00	0.149
350.50	0.149
350.00	0.150
349.50	0.151
349.00	0.152
348.50	0.152
348.00	0.153
347.50	0.154
347.00	0.155
346.50	0.156
346.00	0.157
345.50	0.158
345.00	0.159
344.50	0.160
344.00	0.161
343.50	0.161
343.00	0.162
342.50	0.163
342.00	0.163
341.50	0.164
341.00	0.165
340.50	0.165
340.00	0.165
339.50	0.165
339.00	0.166
338.50	0.166
338.00	0.166
337.50	0.166
337.00	0.166
336.50	0.166
336.00	0.166
335.50	0.166
335.00	0.166
334.50	0.165
334.00	0.165
333.50	0.164
333.00	0.164
332.50	0.163
332.00	0.163
331.50	0.163
331.00	0.162
330.50	0.162
330.00	0.161
329.50	0.160
329.00	0.159
328.50	0.158
328.00	0.158
327.50	0.158
327.00	0.157
326.50	0.157
326.00	0.157
325.50	0.157
325.00	0.156
324.50	0.157
324.00	0.156
323.50	0.156
323.00	0.156
322.50	0.156
322.00	0.156
321.50	0.157
321.00	0.157
320.50	0.157
320.00	0.158
319.50	0.158
319.00	0.158
318.50	0.158
318.00	0.158
317.50	0.160
317.00	0.161
316.50	0.162
316.00	0.162
315.50	0.163
315.00	0.163
314.50	0.164
314.00	0.164
313.50	0.164
313.00	0.165
312.50	0.166
312.00	0.167
311.50	0.167
311.00	0.168
310.50	0.168
310.00	0.169
309.50	0.169
309.00	0.170
308.50	0.170
308.00	0.171
307.50	0.172
307.00	0.172
306.50	0.173
306.00	0.174
305.50	0.175
305.00	0.176
304.50	0.177
304.00	0.177
303.50	0.178
303.00	0.179
302.50	0.180
302.00	0.181
301.50	0.182
301.00	0.183
300.50	0.184
300.00	0.185
299.50	0.186
299.00	0.186
298.50	0.187
298.00	0.188
297.50	0.189
297.00	0.189
296.50	0.190
296.00	0.190
295.50	0.191
295.00	0.191
294.50	0.192
294.00	0.192
293.50	0.193
293.00	0.193
292.50	0.193
292.00	0.194
291.50	0.194
291.00	0.194
290.50	0.195
290.00	0.195
289.50	0.195
289.00	0.195
288.50	0.195
288.00	0.195
287.50	0.195
287.00	0.195
286.50	0.195
286.00	0.195
285.50	0.195
285.00	0.195
284.50	0.195
284.00	0.194
283.50	0.194
283.00	0.194
282.50	0.193
282.00	0.193
281.50	0.192
281.00	0.192
280.50	0.192
280.00	0.191
279.50	0.191
279.00	0.190
278.50	0.190
278.00	0.190
277.50	0.189
277.00	0.189
276.50	0.189
276.00	0.189
275.50	0.189
275.00	0.189
274.50	0.189
274.00	0.188
273.50	0.188
273.00	0.188
272.50	0.188
272.00	0.188
271.50	0.188
271.00	0.188
270.50	0.188
270.00	0.188
269.50	0.188
269.00	0.188
268.50	0.188
268.00	0.188
267.50	0.188
267.00	0.188
266.50	0.188
266.00	0.189
265.50	0.189
265.00	0.189
264.50	0.190
264.00	0.190
263.50	0.190
263.00	0.191
262.50	0.191
262.00	0.192
261.50	0.193
261.00	0.194
260.50	0.195
260.00	0.196
259.50	0.197
259.00	0.198
258.50	0.200
258.00	0.201
257.50	0.203
257.00	0.204
256.50	0.206
256.00	0.207
255.50	0.209
255.00	0.210
254.50	0.211
254.00	0.213
253.50	0.215
253.00	0.216
252.50	0.217
252.00	0.219
251.50	0.220
251.00	0.221
250.50	0.222
250.00	0.223

