ª›ÃﬂŸ:	'Chlorosome@GUV
Ãß≤Ÿñº:	Ni_3C6F5_thiazole_OH_1.UDS
ï™êÕì˙éû:	14:25:27, 10/15/2021
µÕﬂ⁄∞¿:	Administrator
∫“›ƒ:	'from tepidum in GUV:Lecithin/DOPG/Chol=85/15/5 solvent:OS

√ﬁ∞¿ÿΩƒ
nm	Abs
800.00	0.002
799.50	0.002
799.00	0.002
798.50	0.002
798.00	0.002
797.50	0.002
797.00	0.002
796.50	0.002
796.00	0.002
795.50	0.002
795.00	0.002
794.50	0.002
794.00	0.002
793.50	0.002
793.00	0.002
792.50	0.002
792.00	0.002
791.50	0.002
791.00	0.002
790.50	0.002
790.00	0.002
789.50	0.002
789.00	0.002
788.50	0.002
788.00	0.002
787.50	0.002
787.00	0.002
786.50	0.002
786.00	0.002
785.50	0.002
785.00	0.002
784.50	0.002
784.00	0.002
783.50	0.002
783.00	0.002
782.50	0.002
782.00	0.002
781.50	0.002
781.00	0.002
780.50	0.002
780.00	0.002
779.50	0.002
779.00	0.002
778.50	0.002
778.00	0.002
777.50	0.002
777.00	0.002
776.50	0.002
776.00	0.002
775.50	0.002
775.00	0.002
774.50	0.002
774.00	0.002
773.50	0.002
773.00	0.002
772.50	0.002
772.00	0.002
771.50	0.002
771.00	0.002
770.50	0.002
770.00	0.002
769.50	0.002
769.00	0.002
768.50	0.002
768.00	0.002
767.50	0.002
767.00	0.002
766.50	0.002
766.00	0.002
765.50	0.002
765.00	0.002
764.50	0.002
764.00	0.002
763.50	0.002
763.00	0.002
762.50	0.002
762.00	0.002
761.50	0.002
761.00	0.002
760.50	0.002
760.00	0.002
759.50	0.002
759.00	0.002
758.50	0.002
758.00	0.002
757.50	0.002
757.00	0.002
756.50	0.002
756.00	0.002
755.50	0.002
755.00	0.002
754.50	0.002
754.00	0.002
753.50	0.002
753.00	0.002
752.50	0.002
752.00	0.002
751.50	0.002
751.00	0.002
750.50	0.002
750.00	0.002
749.50	0.002
749.00	0.002
748.50	0.002
748.00	0.002
747.50	0.002
747.00	0.002
746.50	0.002
746.00	0.002
745.50	0.002
745.00	0.002
744.50	0.002
744.00	0.002
743.50	0.003
743.00	0.003
742.50	0.003
742.00	0.003
741.50	0.003
741.00	0.003
740.50	0.002
740.00	0.002
739.50	0.002
739.00	0.002
738.50	0.002
738.00	0.003
737.50	0.003
737.00	0.003
736.50	0.003
736.00	0.003
735.50	0.003
735.00	0.003
734.50	0.003
734.00	0.003
733.50	0.003
733.00	0.003
732.50	0.004
732.00	0.004
731.50	0.004
731.00	0.004
730.50	0.003
730.00	0.003
729.50	0.003
729.00	0.003
728.50	0.004
728.00	0.004
727.50	0.004
727.00	0.004
726.50	0.004
726.00	0.004
725.50	0.004
725.00	0.005
724.50	0.005
724.00	0.005
723.50	0.005
723.00	0.005
722.50	0.005
722.00	0.006
721.50	0.006
721.00	0.006
720.50	0.006
720.00	0.006
719.50	0.006
719.00	0.006
718.50	0.006
718.00	0.006
717.50	0.007
717.00	0.007
716.50	0.007
716.00	0.007
715.50	0.007
715.00	0.007
714.50	0.008
714.00	0.008
713.50	0.008
713.00	0.008
712.50	0.008
712.00	0.008
711.50	0.009
711.00	0.009
710.50	0.010
710.00	0.010
709.50	0.010
709.00	0.011
708.50	0.011
708.00	0.011
707.50	0.011
707.00	0.012
706.50	0.012
706.00	0.012
705.50	0.013
705.00	0.013
704.50	0.014
704.00	0.014
703.50	0.014
703.00	0.015
702.50	0.015
702.00	0.015
701.50	0.016
701.00	0.016
700.50	0.016
700.00	0.017
699.50	0.017
699.00	0.018
698.50	0.018
698.00	0.019
697.50	0.019
697.00	0.020
696.50	0.021
696.00	0.021
695.50	0.022
695.00	0.022
694.50	0.023
694.00	0.023
693.50	0.024
693.00	0.024
692.50	0.025
692.00	0.025
691.50	0.026
691.00	0.027
690.50	0.027
690.00	0.028
689.50	0.028
689.00	0.029
688.50	0.029
688.00	0.030
687.50	0.030
687.00	0.031
686.50	0.031
686.00	0.032
685.50	0.032
685.00	0.033
684.50	0.033
684.00	0.033
683.50	0.034
683.00	0.034
682.50	0.035
682.00	0.035
681.50	0.036
681.00	0.036
680.50	0.036
680.00	0.037
679.50	0.037
679.00	0.037
678.50	0.037
678.00	0.038
677.50	0.038
677.00	0.038
676.50	0.039
676.00	0.039
675.50	0.039
675.00	0.039
674.50	0.039
674.00	0.039
673.50	0.039
673.00	0.038
672.50	0.038
672.00	0.038
671.50	0.038
671.00	0.038
670.50	0.038
670.00	0.038
669.50	0.037
669.00	0.037
668.50	0.037
668.00	0.037
667.50	0.037
667.00	0.037
666.50	0.036
666.00	0.036
665.50	0.036
665.00	0.035
664.50	0.035
664.00	0.034
663.50	0.034
663.00	0.033
662.50	0.033
662.00	0.033
661.50	0.032
661.00	0.032
660.50	0.031
660.00	0.031
659.50	0.031
659.00	0.030
658.50	0.030
658.00	0.029
657.50	0.029
657.00	0.029
656.50	0.028
656.00	0.028
655.50	0.027
655.00	0.027
654.50	0.027
654.00	0.026
653.50	0.026
653.00	0.026
652.50	0.026
652.00	0.025
651.50	0.025
651.00	0.025
650.50	0.024
650.00	0.024
649.50	0.024
649.00	0.024
648.50	0.024
648.00	0.023
647.50	0.023
647.00	0.023
646.50	0.023
646.00	0.023
645.50	0.023
645.00	0.023
644.50	0.023
644.00	0.023
643.50	0.023
643.00	0.023
642.50	0.022
642.00	0.022
641.50	0.022
641.00	0.022
640.50	0.023
640.00	0.023
639.50	0.023
639.00	0.023
638.50	0.023
638.00	0.023
637.50	0.023
637.00	0.023
636.50	0.023
636.00	0.023
635.50	0.023
635.00	0.024
634.50	0.024
634.00	0.024
633.50	0.025
633.00	0.025
632.50	0.026
632.00	0.026
631.50	0.026
631.00	0.027
630.50	0.028
630.00	0.028
629.50	0.029
629.00	0.029
628.50	0.029
628.00	0.030
627.50	0.030
627.00	0.031
626.50	0.032
626.00	0.032
625.50	0.033
625.00	0.034
624.50	0.035
624.00	0.035
623.50	0.036
623.00	0.037
622.50	0.038
622.00	0.039
621.50	0.040
621.00	0.041
620.50	0.042
620.00	0.043
619.50	0.044
619.00	0.044
618.50	0.045
618.00	0.047
617.50	0.048
617.00	0.049
616.50	0.051
616.00	0.052
615.50	0.053
615.00	0.055
614.50	0.056
614.00	0.057
613.50	0.059
613.00	0.060
612.50	0.061
612.00	0.063
611.50	0.065
611.00	0.066
610.50	0.068
610.00	0.070
609.50	0.072
609.00	0.074
608.50	0.076
608.00	0.078
607.50	0.080
607.00	0.082
606.50	0.084
606.00	0.086
605.50	0.088
605.00	0.090
604.50	0.092
604.00	0.094
603.50	0.096
603.00	0.098
602.50	0.100
602.00	0.101
601.50	0.103
601.00	0.105
600.50	0.106
600.00	0.108
599.50	0.109
599.00	0.111
598.50	0.112
598.00	0.114
597.50	0.115
597.00	0.116
596.50	0.117
596.00	0.118
595.50	0.118
595.00	0.119
594.50	0.119
594.00	0.119
593.50	0.119
593.00	0.120
592.50	0.120
592.00	0.120
591.50	0.119
591.00	0.119
590.50	0.119
590.00	0.118
589.50	0.117
589.00	0.116
588.50	0.115
588.00	0.114
587.50	0.113
587.00	0.112
586.50	0.111
586.00	0.109
585.50	0.108
585.00	0.107
584.50	0.105
584.00	0.104
583.50	0.103
583.00	0.101
582.50	0.100
582.00	0.099
581.50	0.097
581.00	0.096
580.50	0.095
580.00	0.094
579.50	0.092
579.00	0.091
578.50	0.090
578.00	0.089
577.50	0.088
577.00	0.087
576.50	0.086
576.00	0.085
575.50	0.084
575.00	0.083
574.50	0.082
574.00	0.081
573.50	0.080
573.00	0.080
572.50	0.079
572.00	0.078
571.50	0.077
571.00	0.077
570.50	0.076
570.00	0.076
569.50	0.076
569.00	0.076
568.50	0.076
568.00	0.076
567.50	0.076
567.00	0.076
566.50	0.076
566.00	0.077
565.50	0.077
565.00	0.078
564.50	0.079
564.00	0.080
563.50	0.080
563.00	0.081
562.50	0.083
562.00	0.084
561.50	0.085
561.00	0.086
560.50	0.088
560.00	0.089
559.50	0.090
559.00	0.091
558.50	0.093
558.00	0.094
557.50	0.096
557.00	0.097
556.50	0.099
556.00	0.100
555.50	0.102
555.00	0.103
554.50	0.105
554.00	0.106
553.50	0.107
553.00	0.109
552.50	0.110
552.00	0.111
551.50	0.112
551.00	0.113
550.50	0.114
550.00	0.115
549.50	0.116
549.00	0.116
548.50	0.117
548.00	0.117
547.50	0.118
547.00	0.119
546.50	0.119
546.00	0.119
545.50	0.119
545.00	0.119
544.50	0.119
544.00	0.119
543.50	0.119
543.00	0.119
542.50	0.118
542.00	0.118
541.50	0.117
541.00	0.116
540.50	0.116
540.00	0.115
539.50	0.114
539.00	0.112
538.50	0.111
538.00	0.110
537.50	0.108
537.00	0.107
536.50	0.105
536.00	0.104
535.50	0.103
535.00	0.101
534.50	0.100
534.00	0.098
533.50	0.097
533.00	0.095
532.50	0.093
532.00	0.092
531.50	0.090
531.00	0.088
530.50	0.086
530.00	0.085
529.50	0.083
529.00	0.081
528.50	0.080
528.00	0.078
527.50	0.077
527.00	0.075
526.50	0.074
526.00	0.072
525.50	0.071
525.00	0.069
524.50	0.068
524.00	0.067
523.50	0.066
523.00	0.065
522.50	0.065
522.00	0.064
521.50	0.063
521.00	0.062
520.50	0.062
520.00	0.061
519.50	0.061
519.00	0.060
518.50	0.060
518.00	0.059
517.50	0.059
517.00	0.059
516.50	0.058
516.00	0.058
515.50	0.058
515.00	0.058
514.50	0.058
514.00	0.058
513.50	0.058
513.00	0.058
512.50	0.058
512.00	0.058
511.50	0.058
511.00	0.058
510.50	0.058
510.00	0.058
509.50	0.058
509.00	0.058
508.50	0.057
508.00	0.057
507.50	0.057
507.00	0.057
506.50	0.057
506.00	0.057
505.50	0.057
505.00	0.057
504.50	0.056
504.00	0.056
503.50	0.056
503.00	0.056
502.50	0.056
502.00	0.055
501.50	0.055
501.00	0.055
500.50	0.055
500.00	0.055
499.50	0.054
499.00	0.054
498.50	0.054
498.00	0.053
497.50	0.053
497.00	0.053
496.50	0.052
496.00	0.052
495.50	0.052
495.00	0.052
494.50	0.052
494.00	0.051
493.50	0.051
493.00	0.051
492.50	0.051
492.00	0.051
491.50	0.051
491.00	0.051
490.50	0.051
490.00	0.051
489.50	0.050
489.00	0.051
488.50	0.051
488.00	0.051
487.50	0.051
487.00	0.051
486.50	0.052
486.00	0.052
485.50	0.052
485.00	0.052
484.50	0.053
484.00	0.053
483.50	0.054
483.00	0.054
482.50	0.054
482.00	0.055
481.50	0.056
481.00	0.056
480.50	0.057
480.00	0.058
479.50	0.058
479.00	0.059
478.50	0.060
478.00	0.061
477.50	0.062
477.00	0.063
476.50	0.063
476.00	0.065
475.50	0.065
475.00	0.066
474.50	0.068
474.00	0.069
473.50	0.070
473.00	0.072
472.50	0.073
472.00	0.075
471.50	0.077
471.00	0.078
470.50	0.080
470.00	0.082
469.50	0.084
469.00	0.086
468.50	0.088
468.00	0.091
467.50	0.093
467.00	0.096
466.50	0.099
466.00	0.103
465.50	0.106
465.00	0.110
464.50	0.114
464.00	0.118
463.50	0.123
463.00	0.128
462.50	0.133
462.00	0.138
461.50	0.144
461.00	0.151
460.50	0.157
460.00	0.165
459.50	0.173
459.00	0.181
458.50	0.190
458.00	0.200
457.50	0.211
457.00	0.222
456.50	0.234
456.00	0.247
455.50	0.261
455.00	0.276
454.50	0.292
454.00	0.309
453.50	0.328
453.00	0.347
452.50	0.369
452.00	0.391
451.50	0.416
451.00	0.443
450.50	0.471
450.00	0.502
449.50	0.535
449.00	0.570
448.50	0.606
448.00	0.645
447.50	0.685
447.00	0.727
446.50	0.771
446.00	0.816
445.50	0.862
445.00	0.910
444.50	0.959
444.00	1.009
443.50	1.060
443.00	1.111
442.50	1.161
442.00	1.211
441.50	1.260
441.00	1.306
440.50	1.350
440.00	1.391
439.50	1.428
439.00	1.462
438.50	1.492
438.00	1.519
437.50	1.543
437.00	1.563
436.50	1.579
436.00	1.593
435.50	1.604
435.00	1.612
434.50	1.617
434.00	1.619
433.50	1.619
433.00	1.616
432.50	1.612
432.00	1.606
431.50	1.599
431.00	1.589
430.50	1.577
430.00	1.564
429.50	1.549
429.00	1.532
428.50	1.514
428.00	1.493
427.50	1.471
427.00	1.446
426.50	1.420
426.00	1.393
425.50	1.364
425.00	1.334
424.50	1.304
424.00	1.273
423.50	1.242
423.00	1.211
422.50	1.181
422.00	1.151
421.50	1.121
421.00	1.092
420.50	1.064
420.00	1.036
419.50	1.009
419.00	0.983
418.50	0.958
418.00	0.933
417.50	0.910
417.00	0.887
416.50	0.866
416.00	0.845
415.50	0.826
415.00	0.807
414.50	0.790
414.00	0.773
413.50	0.756
413.00	0.740
412.50	0.725
412.00	0.709
411.50	0.694
411.00	0.680
410.50	0.665
410.00	0.651
409.50	0.637
409.00	0.623
408.50	0.609
408.00	0.596
407.50	0.583
407.00	0.570
406.50	0.557
406.00	0.544
405.50	0.532
405.00	0.519
404.50	0.507
404.00	0.495
403.50	0.482
403.00	0.470
402.50	0.458
402.00	0.445
401.50	0.433
401.00	0.422
400.50	0.411
400.00	0.400
399.50	0.389
399.00	0.379
398.50	0.370
398.00	0.360
397.50	0.351
397.00	0.343
396.50	0.334
396.00	0.326
395.50	0.319
395.00	0.311
394.50	0.304
394.00	0.298
393.50	0.291
393.00	0.285
392.50	0.280
392.00	0.274
391.50	0.269
391.00	0.265
390.50	0.260
390.00	0.256
389.50	0.252
389.00	0.248
388.50	0.244
388.00	0.240
387.50	0.237
387.00	0.233
386.50	0.230
386.00	0.227
385.50	0.224
385.00	0.220
384.50	0.217
384.00	0.214
383.50	0.211
383.00	0.208
382.50	0.205
382.00	0.203
381.50	0.200
381.00	0.197
380.50	0.194
380.00	0.191
379.50	0.188
379.00	0.185
378.50	0.182
378.00	0.179
377.50	0.177
377.00	0.174
376.50	0.171
376.00	0.168
375.50	0.165
375.00	0.163
374.50	0.160
374.00	0.158
373.50	0.156
373.00	0.153
372.50	0.151
372.00	0.149
371.50	0.147
371.00	0.145
370.50	0.143
370.00	0.141
369.50	0.140
369.00	0.138
368.50	0.137
368.00	0.135
367.50	0.134
367.00	0.132
366.50	0.131
366.00	0.130
365.50	0.129
365.00	0.128
364.50	0.128
364.00	0.127
363.50	0.127
363.00	0.126
362.50	0.126
362.00	0.126
361.50	0.126
361.00	0.126
360.50	0.126
360.00	0.126
359.50	0.126
359.00	0.126
358.50	0.126
358.00	0.127
357.50	0.127
357.00	0.128
356.50	0.129
356.00	0.130
355.50	0.131
355.00	0.132
354.50	0.133
354.00	0.135
353.50	0.136
353.00	0.138
352.50	0.140
352.00	0.141
351.50	0.143
351.00	0.145
350.50	0.146
350.00	0.148
349.50	0.149
349.00	0.151
348.50	0.153
348.00	0.155
347.50	0.156
347.00	0.158
346.50	0.160
346.00	0.161
345.50	0.163
345.00	0.165
344.50	0.167
344.00	0.168
343.50	0.170
343.00	0.171
342.50	0.172
342.00	0.174
341.50	0.175
341.00	0.176
340.50	0.177
340.00	0.179
339.50	0.180
339.00	0.182
338.50	0.183
338.00	0.185
337.50	0.186
337.00	0.188
336.50	0.189
336.00	0.190
335.50	0.192
335.00	0.193
334.50	0.195
334.00	0.197
333.50	0.199
333.00	0.201
332.50	0.203
332.00	0.205
331.50	0.207
331.00	0.209
330.50	0.211
330.00	0.213
329.50	0.216
329.00	0.218
328.50	0.220
328.00	0.222
327.50	0.225
327.00	0.227
326.50	0.229
326.00	0.231
325.50	0.233
325.00	0.235
324.50	0.237
324.00	0.238
323.50	0.240
323.00	0.241
322.50	0.243
322.00	0.244
321.50	0.246
321.00	0.247
320.50	0.248
320.00	0.249
319.50	0.249
319.00	0.249
318.50	0.249
318.00	0.249
317.50	0.249
317.00	0.249
316.50	0.249
316.00	0.248
315.50	0.247
315.00	0.247
314.50	0.246
314.00	0.245
313.50	0.243
313.00	0.243
312.50	0.241
312.00	0.240
311.50	0.238
311.00	0.236
310.50	0.234
310.00	0.232
309.50	0.230
309.00	0.228
308.50	0.226
308.00	0.223
307.50	0.221
307.00	0.219
306.50	0.217
306.00	0.215
305.50	0.212
305.00	0.210
304.50	0.208
304.00	0.206
303.50	0.203
303.00	0.201
302.50	0.199
302.00	0.197
301.50	0.195
301.00	0.193
300.50	0.191
300.00	0.189
299.50	0.187
299.00	0.185
298.50	0.183
298.00	0.181
297.50	0.179
297.00	0.177
296.50	0.176
296.00	0.174
295.50	0.172
295.00	0.171
294.50	0.170
294.00	0.168
293.50	0.167
293.00	0.166
292.50	0.166
292.00	0.165
291.50	0.164
291.00	0.164
290.50	0.163
290.00	0.163
289.50	0.163
289.00	0.163
288.50	0.163
288.00	0.163
287.50	0.163
287.00	0.164
286.50	0.164
286.00	0.165
285.50	0.165
285.00	0.166
284.50	0.167
284.00	0.167
283.50	0.168
283.00	0.169
282.50	0.170
282.00	0.171
281.50	0.171
281.00	0.172
280.50	0.173
280.00	0.173
279.50	0.174
279.00	0.174
278.50	0.175
278.00	0.175
277.50	0.176
277.00	0.176
276.50	0.177
276.00	0.177
275.50	0.178
275.00	0.178
274.50	0.179
274.00	0.179
273.50	0.179
273.00	0.179
272.50	0.180
272.00	0.180
271.50	0.180
271.00	0.180
270.50	0.180
270.00	0.181
269.50	0.181
269.00	0.181
268.50	0.181
268.00	0.181
267.50	0.181
267.00	0.181
266.50	0.181
266.00	0.181
265.50	0.181
265.00	0.181
264.50	0.181
264.00	0.181
263.50	0.181
263.00	0.181
262.50	0.181
262.00	0.181
261.50	0.182
261.00	0.182
260.50	0.182
260.00	0.183
259.50	0.183
259.00	0.184
258.50	0.185
258.00	0.185
257.50	0.186
257.00	0.187
256.50	0.188
256.00	0.189
255.50	0.189
255.00	0.190
254.50	0.191
254.00	0.192
253.50	0.194
253.00	0.195
252.50	0.196
252.00	0.198
251.50	0.200
251.00	0.201
250.50	0.203
250.00	0.204

