ª›ÃﬂŸ:	'Chlorosome@GUV
Ãß≤Ÿñº:	Ni_3C6F5_thiophene_OH_3.UDS
ï™êÕì˙éû:	15:05:53, 10/15/2021
µÕﬂ⁄∞¿:	Administrator
∫“›ƒ:	'from tepidum in GUV:Lecithin/DOPG/Chol=85/15/5 solvent:OS

√ﬁ∞¿ÿΩƒ
nm	Abs
800.00	0.001
799.50	0.001
799.00	0.001
798.50	0.001
798.00	0.001
797.50	0.001
797.00	0.001
796.50	0.001
796.00	0.001
795.50	0.001
795.00	0.001
794.50	0.001
794.00	0.001
793.50	0.001
793.00	0.001
792.50	0.001
792.00	0.001
791.50	0.001
791.00	0.001
790.50	0.001
790.00	0.001
789.50	0.001
789.00	0.001
788.50	0.001
788.00	0.001
787.50	0.001
787.00	0.001
786.50	0.001
786.00	0.001
785.50	0.001
785.00	0.001
784.50	0.001
784.00	0.001
783.50	0.001
783.00	0.001
782.50	0.001
782.00	0.001
781.50	0.001
781.00	0.001
780.50	0.001
780.00	0.001
779.50	0.001
779.00	0.001
778.50	0.001
778.00	0.001
777.50	0.001
777.00	0.002
776.50	0.002
776.00	0.001
775.50	0.001
775.00	0.001
774.50	0.001
774.00	0.001
773.50	0.001
773.00	0.002
772.50	0.002
772.00	0.002
771.50	0.002
771.00	0.001
770.50	0.001
770.00	0.001
769.50	0.001
769.00	0.002
768.50	0.002
768.00	0.002
767.50	0.002
767.00	0.002
766.50	0.002
766.00	0.002
765.50	0.002
765.00	0.002
764.50	0.002
764.00	0.002
763.50	0.002
763.00	0.002
762.50	0.002
762.00	0.002
761.50	0.002
761.00	0.002
760.50	0.002
760.00	0.003
759.50	0.003
759.00	0.003
758.50	0.003
758.00	0.003
757.50	0.003
757.00	0.003
756.50	0.003
756.00	0.003
755.50	0.003
755.00	0.003
754.50	0.003
754.00	0.003
753.50	0.003
753.00	0.003
752.50	0.003
752.00	0.003
751.50	0.003
751.00	0.003
750.50	0.004
750.00	0.004
749.50	0.004
749.00	0.004
748.50	0.004
748.00	0.004
747.50	0.004
747.00	0.004
746.50	0.004
746.00	0.004
745.50	0.004
745.00	0.005
744.50	0.005
744.00	0.005
743.50	0.005
743.00	0.005
742.50	0.005
742.00	0.005
741.50	0.005
741.00	0.006
740.50	0.006
740.00	0.006
739.50	0.006
739.00	0.006
738.50	0.006
738.00	0.006
737.50	0.007
737.00	0.007
736.50	0.007
736.00	0.007
735.50	0.008
735.00	0.007
734.50	0.008
734.00	0.008
733.50	0.008
733.00	0.008
732.50	0.009
732.00	0.009
731.50	0.010
731.00	0.010
730.50	0.010
730.00	0.010
729.50	0.010
729.00	0.010
728.50	0.011
728.00	0.011
727.50	0.011
727.00	0.012
726.50	0.013
726.00	0.014
725.50	0.014
725.00	0.015
724.50	0.015
724.00	0.016
723.50	0.016
723.00	0.017
722.50	0.017
722.00	0.018
721.50	0.018
721.00	0.019
720.50	0.020
720.00	0.020
719.50	0.021
719.00	0.021
718.50	0.022
718.00	0.023
717.50	0.024
717.00	0.025
716.50	0.025
716.00	0.026
715.50	0.027
715.00	0.028
714.50	0.028
714.00	0.029
713.50	0.030
713.00	0.031
712.50	0.032
712.00	0.033
711.50	0.034
711.00	0.035
710.50	0.036
710.00	0.037
709.50	0.038
709.00	0.040
708.50	0.041
708.00	0.042
707.50	0.043
707.00	0.044
706.50	0.046
706.00	0.047
705.50	0.049
705.00	0.050
704.50	0.051
704.00	0.053
703.50	0.054
703.00	0.055
702.50	0.057
702.00	0.058
701.50	0.060
701.00	0.061
700.50	0.063
700.00	0.064
699.50	0.066
699.00	0.067
698.50	0.069
698.00	0.071
697.50	0.072
697.00	0.074
696.50	0.075
696.00	0.076
695.50	0.078
695.00	0.079
694.50	0.081
694.00	0.082
693.50	0.084
693.00	0.085
692.50	0.087
692.00	0.088
691.50	0.089
691.00	0.090
690.50	0.092
690.00	0.093
689.50	0.094
689.00	0.095
688.50	0.096
688.00	0.097
687.50	0.098
687.00	0.099
686.50	0.100
686.00	0.101
685.50	0.102
685.00	0.103
684.50	0.104
684.00	0.104
683.50	0.105
683.00	0.105
682.50	0.106
682.00	0.106
681.50	0.107
681.00	0.107
680.50	0.107
680.00	0.107
679.50	0.107
679.00	0.107
678.50	0.107
678.00	0.107
677.50	0.107
677.00	0.107
676.50	0.107
676.00	0.106
675.50	0.106
675.00	0.105
674.50	0.104
674.00	0.104
673.50	0.103
673.00	0.102
672.50	0.101
672.00	0.101
671.50	0.100
671.00	0.099
670.50	0.098
670.00	0.097
669.50	0.096
669.00	0.095
668.50	0.094
668.00	0.093
667.50	0.092
667.00	0.090
666.50	0.089
666.00	0.088
665.50	0.087
665.00	0.085
664.50	0.084
664.00	0.083
663.50	0.081
663.00	0.080
662.50	0.079
662.00	0.078
661.50	0.077
661.00	0.076
660.50	0.074
660.00	0.073
659.50	0.072
659.00	0.071
658.50	0.069
658.00	0.068
657.50	0.067
657.00	0.066
656.50	0.065
656.00	0.064
655.50	0.063
655.00	0.062
654.50	0.061
654.00	0.060
653.50	0.059
653.00	0.058
652.50	0.057
652.00	0.056
651.50	0.055
651.00	0.054
650.50	0.053
650.00	0.053
649.50	0.052
649.00	0.051
648.50	0.050
648.00	0.050
647.50	0.049
647.00	0.048
646.50	0.048
646.00	0.048
645.50	0.047
645.00	0.047
644.50	0.046
644.00	0.046
643.50	0.046
643.00	0.045
642.50	0.045
642.00	0.044
641.50	0.044
641.00	0.044
640.50	0.043
640.00	0.043
639.50	0.043
639.00	0.043
638.50	0.042
638.00	0.042
637.50	0.042
637.00	0.041
636.50	0.041
636.00	0.041
635.50	0.041
635.00	0.041
634.50	0.041
634.00	0.041
633.50	0.041
633.00	0.040
632.50	0.040
632.00	0.040
631.50	0.040
631.00	0.040
630.50	0.040
630.00	0.040
629.50	0.040
629.00	0.040
628.50	0.039
628.00	0.039
627.50	0.039
627.00	0.038
626.50	0.038
626.00	0.038
625.50	0.038
625.00	0.038
624.50	0.038
624.00	0.038
623.50	0.037
623.00	0.037
622.50	0.037
622.00	0.036
621.50	0.036
621.00	0.036
620.50	0.036
620.00	0.036
619.50	0.035
619.00	0.035
618.50	0.035
618.00	0.035
617.50	0.035
617.00	0.034
616.50	0.034
616.00	0.034
615.50	0.034
615.00	0.034
614.50	0.033
614.00	0.033
613.50	0.033
613.00	0.032
612.50	0.032
612.00	0.032
611.50	0.032
611.00	0.032
610.50	0.031
610.00	0.031
609.50	0.031
609.00	0.031
608.50	0.031
608.00	0.031
607.50	0.031
607.00	0.031
606.50	0.030
606.00	0.030
605.50	0.030
605.00	0.030
604.50	0.030
604.00	0.030
603.50	0.029
603.00	0.030
602.50	0.030
602.00	0.030
601.50	0.030
601.00	0.030
600.50	0.030
600.00	0.030
599.50	0.030
599.00	0.030
598.50	0.030
598.00	0.030
597.50	0.031
597.00	0.031
596.50	0.032
596.00	0.032
595.50	0.032
595.00	0.033
594.50	0.033
594.00	0.033
593.50	0.034
593.00	0.034
592.50	0.035
592.00	0.036
591.50	0.037
591.00	0.037
590.50	0.038
590.00	0.039
589.50	0.039
589.00	0.040
588.50	0.041
588.00	0.042
587.50	0.043
587.00	0.043
586.50	0.044
586.00	0.045
585.50	0.046
585.00	0.046
584.50	0.047
584.00	0.048
583.50	0.049
583.00	0.050
582.50	0.051
582.00	0.052
581.50	0.053
581.00	0.054
580.50	0.054
580.00	0.055
579.50	0.056
579.00	0.056
578.50	0.057
578.00	0.058
577.50	0.059
577.00	0.059
576.50	0.060
576.00	0.060
575.50	0.061
575.00	0.061
574.50	0.061
574.00	0.061
573.50	0.062
573.00	0.062
572.50	0.062
572.00	0.062
571.50	0.062
571.00	0.061
570.50	0.061
570.00	0.061
569.50	0.061
569.00	0.060
568.50	0.060
568.00	0.059
567.50	0.059
567.00	0.058
566.50	0.057
566.00	0.057
565.50	0.056
565.00	0.056
564.50	0.055
564.00	0.054
563.50	0.054
563.00	0.053
562.50	0.052
562.00	0.052
561.50	0.051
561.00	0.051
560.50	0.050
560.00	0.049
559.50	0.049
559.00	0.049
558.50	0.048
558.00	0.048
557.50	0.048
557.00	0.048
556.50	0.048
556.00	0.048
555.50	0.048
555.00	0.048
554.50	0.048
554.00	0.049
553.50	0.049
553.00	0.049
552.50	0.050
552.00	0.050
551.50	0.051
551.00	0.051
550.50	0.052
550.00	0.053
549.50	0.054
549.00	0.055
548.50	0.056
548.00	0.057
547.50	0.058
547.00	0.059
546.50	0.061
546.00	0.062
545.50	0.063
545.00	0.064
544.50	0.066
544.00	0.067
543.50	0.069
543.00	0.071
542.50	0.072
542.00	0.073
541.50	0.074
541.00	0.075
540.50	0.076
540.00	0.077
539.50	0.078
539.00	0.079
538.50	0.080
538.00	0.081
537.50	0.082
537.00	0.083
536.50	0.084
536.00	0.084
535.50	0.085
535.00	0.085
534.50	0.085
534.00	0.085
533.50	0.085
533.00	0.085
532.50	0.085
532.00	0.085
531.50	0.084
531.00	0.084
530.50	0.083
530.00	0.082
529.50	0.081
529.00	0.080
528.50	0.079
528.00	0.078
527.50	0.077
527.00	0.075
526.50	0.074
526.00	0.072
525.50	0.071
525.00	0.070
524.50	0.068
524.00	0.067
523.50	0.066
523.00	0.064
522.50	0.063
522.00	0.061
521.50	0.060
521.00	0.058
520.50	0.057
520.00	0.056
519.50	0.054
519.00	0.053
518.50	0.052
518.00	0.051
517.50	0.050
517.00	0.049
516.50	0.048
516.00	0.047
515.50	0.046
515.00	0.045
514.50	0.044
514.00	0.043
513.50	0.043
513.00	0.042
512.50	0.041
512.00	0.041
511.50	0.040
511.00	0.040
510.50	0.040
510.00	0.039
509.50	0.039
509.00	0.039
508.50	0.039
508.00	0.039
507.50	0.039
507.00	0.039
506.50	0.039
506.00	0.039
505.50	0.039
505.00	0.039
504.50	0.039
504.00	0.039
503.50	0.039
503.00	0.039
502.50	0.040
502.00	0.040
501.50	0.040
501.00	0.040
500.50	0.040
500.00	0.041
499.50	0.041
499.00	0.041
498.50	0.041
498.00	0.041
497.50	0.041
497.00	0.042
496.50	0.042
496.00	0.042
495.50	0.042
495.00	0.042
494.50	0.042
494.00	0.042
493.50	0.042
493.00	0.042
492.50	0.043
492.00	0.043
491.50	0.043
491.00	0.043
490.50	0.043
490.00	0.043
489.50	0.043
489.00	0.043
488.50	0.043
488.00	0.044
487.50	0.044
487.00	0.044
486.50	0.044
486.00	0.044
485.50	0.045
485.00	0.045
484.50	0.045
484.00	0.045
483.50	0.046
483.00	0.046
482.50	0.046
482.00	0.047
481.50	0.047
481.00	0.048
480.50	0.048
480.00	0.049
479.50	0.050
479.00	0.050
478.50	0.051
478.00	0.052
477.50	0.053
477.00	0.054
476.50	0.055
476.00	0.056
475.50	0.057
475.00	0.058
474.50	0.059
474.00	0.061
473.50	0.062
473.00	0.064
472.50	0.066
472.00	0.068
471.50	0.070
471.00	0.071
470.50	0.073
470.00	0.076
469.50	0.078
469.00	0.080
468.50	0.083
468.00	0.086
467.50	0.089
467.00	0.092
466.50	0.095
466.00	0.099
465.50	0.102
465.00	0.106
464.50	0.110
464.00	0.115
463.50	0.119
463.00	0.124
462.50	0.129
462.00	0.134
461.50	0.139
461.00	0.145
460.50	0.151
460.00	0.157
459.50	0.163
459.00	0.170
458.50	0.178
458.00	0.185
457.50	0.193
457.00	0.201
456.50	0.209
456.00	0.217
455.50	0.226
455.00	0.234
454.50	0.243
454.00	0.252
453.50	0.261
453.00	0.271
452.50	0.280
452.00	0.290
451.50	0.300
451.00	0.309
450.50	0.319
450.00	0.328
449.50	0.338
449.00	0.347
448.50	0.356
448.00	0.366
447.50	0.375
447.00	0.383
446.50	0.392
446.00	0.400
445.50	0.408
445.00	0.415
444.50	0.423
444.00	0.430
443.50	0.437
443.00	0.444
442.50	0.451
442.00	0.458
441.50	0.465
441.00	0.472
440.50	0.479
440.00	0.486
439.50	0.493
439.00	0.500
438.50	0.508
438.00	0.516
437.50	0.524
437.00	0.533
436.50	0.543
436.00	0.553
435.50	0.564
435.00	0.576
434.50	0.588
434.00	0.602
433.50	0.616
433.00	0.632
432.50	0.648
432.00	0.665
431.50	0.682
431.00	0.700
430.50	0.719
430.00	0.739
429.50	0.759
429.00	0.780
428.50	0.801
428.00	0.824
427.50	0.846
427.00	0.869
426.50	0.892
426.00	0.915
425.50	0.938
425.00	0.961
424.50	0.983
424.00	1.003
423.50	1.023
423.00	1.042
422.50	1.059
422.00	1.076
421.50	1.091
421.00	1.104
420.50	1.116
420.00	1.126
419.50	1.135
419.00	1.141
418.50	1.146
418.00	1.148
417.50	1.148
417.00	1.147
416.50	1.143
416.00	1.137
415.50	1.129
415.00	1.119
414.50	1.107
414.00	1.093
413.50	1.078
413.00	1.060
412.50	1.041
412.00	1.021
411.50	0.998
411.00	0.975
410.50	0.950
410.00	0.924
409.50	0.897
409.00	0.870
408.50	0.843
408.00	0.816
407.50	0.788
407.00	0.762
406.50	0.736
406.00	0.710
405.50	0.685
405.00	0.661
404.50	0.637
404.00	0.614
403.50	0.592
403.00	0.571
402.50	0.550
402.00	0.530
401.50	0.511
401.00	0.493
400.50	0.475
400.00	0.459
399.50	0.444
399.00	0.429
398.50	0.415
398.00	0.402
397.50	0.390
397.00	0.378
396.50	0.367
396.00	0.356
395.50	0.345
395.00	0.335
394.50	0.326
394.00	0.316
393.50	0.308
393.00	0.300
392.50	0.292
392.00	0.285
391.50	0.278
391.00	0.272
390.50	0.265
390.00	0.259
389.50	0.253
389.00	0.248
388.50	0.243
388.00	0.238
387.50	0.233
387.00	0.228
386.50	0.223
386.00	0.219
385.50	0.214
385.00	0.210
384.50	0.206
384.00	0.202
383.50	0.199
383.00	0.195
382.50	0.192
382.00	0.189
381.50	0.186
381.00	0.183
380.50	0.180
380.00	0.177
379.50	0.174
379.00	0.171
378.50	0.168
378.00	0.165
377.50	0.163
377.00	0.160
376.50	0.158
376.00	0.155
375.50	0.153
375.00	0.151
374.50	0.149
374.00	0.147
373.50	0.145
373.00	0.143
372.50	0.141
372.00	0.139
371.50	0.137
371.00	0.135
370.50	0.134
370.00	0.132
369.50	0.130
369.00	0.129
368.50	0.127
368.00	0.126
367.50	0.125
367.00	0.124
366.50	0.122
366.00	0.121
365.50	0.120
365.00	0.120
364.50	0.119
364.00	0.118
363.50	0.117
363.00	0.117
362.50	0.116
362.00	0.116
361.50	0.115
361.00	0.115
360.50	0.115
360.00	0.114
359.50	0.114
359.00	0.113
358.50	0.113
358.00	0.113
357.50	0.113
357.00	0.113
356.50	0.114
356.00	0.114
355.50	0.114
355.00	0.114
354.50	0.115
354.00	0.115
353.50	0.115
353.00	0.116
352.50	0.117
352.00	0.117
351.50	0.118
351.00	0.118
350.50	0.119
350.00	0.120
349.50	0.120
349.00	0.121
348.50	0.122
348.00	0.123
347.50	0.124
347.00	0.125
346.50	0.126
346.00	0.127
345.50	0.128
345.00	0.129
344.50	0.129
344.00	0.130
343.50	0.131
343.00	0.132
342.50	0.132
342.00	0.133
341.50	0.134
341.00	0.134
340.50	0.134
340.00	0.135
339.50	0.135
339.00	0.135
338.50	0.136
338.00	0.136
337.50	0.136
337.00	0.137
336.50	0.137
336.00	0.137
335.50	0.137
335.00	0.136
334.50	0.136
334.00	0.136
333.50	0.136
333.00	0.136
332.50	0.135
332.00	0.135
331.50	0.135
331.00	0.135
330.50	0.135
330.00	0.134
329.50	0.134
329.00	0.133
328.50	0.132
328.00	0.132
327.50	0.132
327.00	0.132
326.50	0.132
326.00	0.132
325.50	0.132
325.00	0.132
324.50	0.132
324.00	0.132
323.50	0.132
323.00	0.132
322.50	0.132
322.00	0.133
321.50	0.134
321.00	0.134
320.50	0.134
320.00	0.135
319.50	0.135
319.00	0.135
318.50	0.135
318.00	0.136
317.50	0.137
317.00	0.138
316.50	0.139
316.00	0.139
315.50	0.140
315.00	0.141
314.50	0.142
314.00	0.142
313.50	0.143
313.00	0.144
312.50	0.145
312.00	0.146
311.50	0.147
311.00	0.147
310.50	0.148
310.00	0.149
309.50	0.150
309.00	0.151
308.50	0.151
308.00	0.152
307.50	0.153
307.00	0.154
306.50	0.155
306.00	0.155
305.50	0.156
305.00	0.157
304.50	0.157
304.00	0.158
303.50	0.159
303.00	0.159
302.50	0.160
302.00	0.160
301.50	0.161
301.00	0.161
300.50	0.162
300.00	0.163
299.50	0.163
299.00	0.163
298.50	0.164
298.00	0.164
297.50	0.164
297.00	0.164
296.50	0.164
296.00	0.164
295.50	0.164
295.00	0.164
294.50	0.164
294.00	0.164
293.50	0.165
293.00	0.165
292.50	0.165
292.00	0.164
291.50	0.164
291.00	0.164
290.50	0.164
290.00	0.164
289.50	0.164
289.00	0.164
288.50	0.164
288.00	0.163
287.50	0.163
287.00	0.163
286.50	0.163
286.00	0.163
285.50	0.162
285.00	0.162
284.50	0.162
284.00	0.162
283.50	0.162
283.00	0.161
282.50	0.161
282.00	0.161
281.50	0.161
281.00	0.161
280.50	0.161
280.00	0.160
279.50	0.160
279.00	0.160
278.50	0.160
278.00	0.160
277.50	0.160
277.00	0.160
276.50	0.160
276.00	0.161
275.50	0.161
275.00	0.161
274.50	0.161
274.00	0.161
273.50	0.162
273.00	0.162
272.50	0.162
272.00	0.162
271.50	0.163
271.00	0.163
270.50	0.163
270.00	0.163
269.50	0.164
269.00	0.164
268.50	0.165
268.00	0.165
267.50	0.166
267.00	0.166
266.50	0.167
266.00	0.167
265.50	0.168
265.00	0.168
264.50	0.169
264.00	0.170
263.50	0.170
263.00	0.171
262.50	0.171
262.00	0.172
261.50	0.173
261.00	0.174
260.50	0.175
260.00	0.176
259.50	0.177
259.00	0.179
258.50	0.180
258.00	0.182
257.50	0.183
257.00	0.185
256.50	0.186
256.00	0.188
255.50	0.189
255.00	0.191
254.50	0.192
254.00	0.194
253.50	0.195
253.00	0.197
252.50	0.199
252.00	0.201
251.50	0.202
251.00	0.204
250.50	0.206
250.00	0.207

